1580245250.00
64.000000
-0.00
-0.00
-0.00
-0.00
-0.00
-0.00
-0.00
-0.00
-0.00
-0.00
0.00
0.01
0.01
-0.00
-0.03
-0.05
-0.05
0.00
0.13
0.36
0.66
1.01
1.37
1.72
2.06
2.40
2.79
3.24
3.80
4.42
5.06
5.66
6.20
6.68
7.15
7.68
8.31
9.14
10.09
11.04
11.88
12.56
13.14
13.76
14.65
15.96
17.91
20.32
22.90
25.38
27.58
29.57
31.68
34.32
37.81
42.54
48.15
54.10
59.83
64.97
69.58
74.14
79.34
85.70
93.76
102.99
112.62
121.74
129.79
136.80
143.39
150.89
157.98
166.93
178.33
192.28
207.57
221.30
229.11
226.36
209.66
178.12
134.13
81.52
24.64
-33.28
-90.69
-147.33
-203.32
-258.38
-311.65
-361.64
-407.41
-448.25
-483.58
-512.57
-533.87
-545.73
-546.39
-534.69
-510.32
-474.43
-429.09
-376.99
-320.83
-262.93
-205.06
-148.46
-94.09
-42.72
4.74
47.41
84.56
115.75
140.98
160.69
175.65
186.73
194.79
200.39
203.83
205.11
204.14
200.92
195.70
189.03
181.59
174.03
166.61
158.98
150.19
138.96
124.20
105.40
82.87
57.64
31.24
5.02
-20.30
-44.86
-69.23
-93.72
-117.91
-140.26
-158.52
-170.52
-174.91
-171.79
-162.86
-150.62
-137.58
-126.00
-117.14
-112.27
-111.30
-111.88
-109.15
-97.26
-71.99
-32.47
17.58
70.86
119.20
156.66
181.06
193.89
197.98
195.98
189.78
180.92
171.43
163.91
160.76
162.87
169.22
176.55
181.20
180.78
175.40
167.81
162.40
163.76
172.28
186.77
202.00
209.44
200.09
168.14
113.68
43.31
-31.36
-96.97
-141.67
-158.95
-149.21
-119.69
-82.39
-50.43
-33.84
-36.39
-54.83
-80.89
-105.79
-123.91
-134.01
-138.12
-138.61
-136.54
-131.61
-123.89
-115.27
-109.48
-109.40
-114.17
-118.30
-113.33
-92.30
-53.85
-3.74
47.77
89.49
114.31
121.42
115.83
105.35
96.57
92.95
95.09
102.22
113.17
126.36
138.78
144.49
138.33
117.00
81.38
37.46
-5.69
-39.60
-59.71
-66.59
-64.64
-59.04
-53.48
-49.11
-45.27
-41.06
-36.47
-32.31
-29.46
-28.14
-27.54
-26.55
-24.15
-20.08
-14.90
-9.69
-5.66
-3.35
-2.74
-3.06
-3.47
-3.37
-2.74
-2.17
-2.58
-4.94
-9.57
-16.36
-24.52
-33.09
-41.24
-48.43
-54.49
-59.48
-63.46
-66.28
-67.75
-67.35
-64.68
-59.61
-52.35
-43.38
-33.41
-23.15
-12.72
-3.06
5.37
12.38
17.92
22.05
24.91
26.73
27.77
28.30
28.47
28.47
28.38
28.24
28.08
27.93
27.86
27.93
28.20
28.57
29.06
29.57
30.01
30.36
30.65
31.04
31.70
32.76
34.18
35.82
37.31
38.38
38.80
38.55
37.78
36.72
35.49
33.88
31.47
27.45
21.34
13.04
2.99
-7.87
-18.37
-27.61
-35.24
-41.05
-46.25
-51.69
-57.76
-64.13
-69.84
-73.82
-75.43
-75.03
-73.26
-71.43
-70.68
-71.89
-75.62
-81.98
-90.25
-98.29
-102.57
-98.97
-84.72
-59.87
-28.09
4.40
31.29
48.63
56.07
56.33
53.23
49.57
46.35
43.12
39.22
34.74
30.64
28.03
27.35
27.98
28.60
27.86
25.07
20.55
15.39
10.85
7.81
6.41
6.02
5.60
4.21
1.42
-2.52
-6.88
-10.83
-13.81
-15.77
-17.11
-18.47
-20.42
-23.19
-26.65
-30.38
-33.96
-37.11
-39.81
-42.24
-44.56
-46.83
-48.85
-50.21
-50.37
-48.84
-45.29
-39.66
-32.03
-22.57
-11.53
0.88
14.43
28.81
43.55
57.94
71.12
81.48
88.67
92.78
94.31
94.04
92.68
90.56
87.49
82.83
76.64
68.19
57.58
45.76
34.16
24.07
16.15
10.26
5.68
1.71
-1.60
-3.55
-2.96
1.18
8.89
19.16
30.64
42.43
53.66
64.58
74.04
78.67
73.99
56.45
25.99
-12.98
-52.88
-86.21
-108.62
-120.08
-123.19
-120.20
-111.09
-93.94
-67.25
-32.49
5.52
40.57
67.81
86.00
97.40
105.29
111.31
113.84
108.97
93.44
67.31
34.72
2.06
-24.80
-43.08
-53.45
-58.65
-61.64
-64.02
-66.21
-67.63
-67.15
-62.98
-53.81
-39.60
-23.30
-10.82
-8.55
-19.08
-38.31
-55.94
-60.78
-47.80
-22.02
3.10
12.72
-1.26
-35.73
-78.29
-113.45
-130.04
-125.42
-104.40
-75.18
-45.10
-17.95
5.84
27.49
47.86
66.45
81.16
89.54
90.18
83.80
73.77
64.71
60.99
65.20
77.28
94.27
111.28
122.52
122.54
107.90
78.56
38.62
-5.54
-44.20
-70.59
-83.37
-86.36
-85.79
-86.90
-91.98
-100.89
-111.01
-119.86
-125.45
-125.81
-118.69
-102.08
-75.66
-41.62
-4.09
32.15
63.35
88.31
107.72
122.68
133.23
138.11
135.75
126.10
111.67
97.01
87.72
87.87
98.80
119.07
144.93
171.72
194.98
211.17
213.46
198.30
165.30
117.17
58.44
-5.91
-71.06
-131.93
-182.50
-215.89
-225.51
-208.66
-168.69
-114.92
-59.80
-14.56
14.26
25.87
23.71
13.15
-1.76
-19.34
-39.65
-62.94
-88.22
-112.95
-133.76
-147.72
-153.11
-150.29
-141.09
-127.82
-112.14
-94.60
-74.94
-52.96
-29.29
-5.55
15.90
32.77
43.63
48.19
46.96
40.64
29.59
13.86
-6.09
-28.75
-51.04
-68.77
-77.89
-76.04
-63.72
-44.26
-22.74
-4.30
7.45
11.20
7.80
-0.54
-11.22
-21.87
-30.67
-36.32
-38.01
-35.52
-29.22
-20.13
-9.61
1.10
11.21
20.54
29.29
37.65
45.47
52.12
56.78
58.80
57.95
54.58
49.44
43.38
37.18
31.42
26.43
22.34
19.07
16.40
13.93
11.19
7.74
3.27
-2.27
-8.62
-15.32
-21.77
-27.40
-31.82
-34.89
-36.72
-37.55
-37.99
-39.00
-41.70
-47.03
-55.47
-66.90
-80.37
-94.16
-105.53
-111.31
-108.56
-95.32
-71.11
-36.65
6.60
56.80
111.46
166.88
216.69
252.23
264.78
249.24
207.05
146.12
77.65
11.42
-46.46
-94.64
-134.32
-166.48
-190.85
-207.39
-218.53
-229.40
-245.16
-265.11
-283.37
-291.37
-282.00
-253.16
-208.63
-156.12
-103.36
-54.84
-7.77
41.93
95.70
151.52
206.25
258.49
309.48
362.19
419.29
485.22
559.56
634.94
699.82
743.46
760.12
750.30
719.36
648.75
535.35
393.34
248.14
122.08
25.16
-43.00
-87.28
-113.25
-125.84
-126.74
-117.02
-100.22
-81.40
-64.98
-53.01
-45.56
-42.07
-42.47
-44.56
-43.78
-39.92
-35.01
-31.18
-29.34
-29.37
-30.98
-34.26
-37.58
-39.80
-41.56
-44.21
-48.78
-55.48
-64.11
-74.74
-87.88
-103.34
-120.85
-140.89
-163.62
-188.49
-214.19
-239.23
-262.82
-285.71
-310.11
-339.12
-375.39
-418.45
-463.32
-500.88
-520.37
-513.05
-475.41
-410.92
-329.74
-246.68
-177.70
-135.79
-127.28
-149.54
-191.15
-234.98
-263.43
-263.96
-232.98
-176.34
-106.63
-38.79
14.27
44.37
49.28
32.65
2.96
-28.33
-49.64
-52.47
-34.30
0.69
43.43
84.05
115.98
138.10
154.07
169.13
186.52
205.69
223.09
234.98
240.02
240.08
238.79
239.09
241.37
243.37
241.88
235.04
223.42
209.63
196.76
186.57
178.63
170.92
160.99
147.50
130.93
113.29
97.19
84.57
75.84
69.92
64.74
58.41
50.02
39.76
28.54
17.33
6.64
-3.57
-13.59
-23.65
-33.58
-42.93
-51.22
-57.89
-62.49
-64.48
-63.43
-59.21
-52.40
-44.27
-36.27
-29.40
-23.82
-19.03
-14.47
-9.99
-6.03
-3.38
-2.66
-3.71
-5.67
-7.35
-8.06
-7.84
-7.15
-6.48
-6.21
-6.44
-7.03
-7.80
-8.58
-9.91
-12.34
-15.93
-20.14
-24.32
-28.15
-31.40
-33.98
-35.76
-37.62
-40.09
-42.72
-44.17
-43.22
-39.83
-34.90
-29.71
-25.37
-24.45
-28.50
-36.48
-44.62
-48.55
-45.66
-35.61
-20.52
-4.22
6.72
6.99
-5.33
-28.40
-59.27
-95.68
-135.15
-175.64
-198.22
-187.96
-143.47
-79.01
-12.52
44.13
87.17
119.70
145.73
167.24
183.26
192.39
194.69
191.35
184.32
174.61
165.38
158.09
151.58
143.54
132.21
117.32
100.21
80.30
56.18
29.12
4.20
-18.10
-38.09
-56.02
-71.71
-71.95
-51.77
-34.86
-29.70
-30.75
-37.44
-49.49
-66.52
-88.16
-114.18
-146.76
-187.88
-235.37
-288.78
-350.26
-420.12
-495.70
-570.70
-635.95
-683.41
-707.35
-703.84
-675.81
-632.05
-581.24
-529.39
-478.97
-429.87
-382.24
-336.53
-291.96
-248.66
-207.34
-167.34
-127.43
-86.92
-46.28
-7.62
26.68
55.93
80.40
101.15
120.24
139.73
160.78
183.26
205.72
226.42
244.47
259.90
273.52
286.70
300.57
315.49
330.89
345.75
359.07
370.46
380.23
389.24
398.63
409.86
424.80
445.32
472.29
504.31
537.09
564.25
579.34
578.17
560.16
528.18
487.15
442.33
398.24
358.19
324.39
298.11
279.75
268.89
264.44
264.78
267.72
270.73
271.45
268.53
262.47
255.75
251.26
250.05
249.90
246.12
234.31
213.61
187.83
163.47
145.78
135.54
129.17
121.61
110.27
96.75
85.44
79.95
80.03
81.23
77.26
63.66
40.13
10.59
-19.30
-45.01
-65.06
-81.07
-96.48
-114.62
-137.29
-164.31
-193.71
-222.72
-248.78
-270.72
-289.21
-306.55
-326.05
-350.99
-383.64
-424.54
-472.18
-523.02
-571.88
-612.66
-639.50
-648.54
-639.73
-617.81
-591.44
-570.20
-560.66
-563.31
-572.17
-577.53
-570.45
-546.56
-507.30
-458.24
-405.64
-353.71
-303.83
-255.76
-209.76
-167.56
-131.67
-103.72
-83.08
-66.80
-50.86
-32.17
-9.84
14.64
38.29
58.35
73.70
85.33
96.00
109.31
128.22
153.95
185.23
218.30
247.83
268.50
276.73
271.94
256.75
235.76
213.59
193.15
174.76
156.82
137.38
115.61
92.46
70.41
52.33
40.42
35.64
37.70
45.35
56.72
69.60
82.02
92.78
101.98
111.05
122.24
137.47
157.28
180.38
204.01
224.97
240.75
250.14
253.31
251.31
245.39
236.59
225.57
212.73
198.58
184.00
170.11
158.12
148.79
141.79
135.43
126.83
112.58
89.65
56.59
14.26
-33.92
-82.40
-124.72
-154.93
-168.97
-165.68
-146.99
-117.41
-83.05
-50.19
-24.04
-7.82
-2.30
-5.99
-15.85
-28.32
-40.22
-49.42
-54.88
-56.62
-55.26
-51.73
-46.86
-40.81
-32.77
-21.03
-3.48
21.58
54.37
93.36
135.44
176.74
213.81
244.75
269.85
291.60
313.87
340.50
373.73
412.74
453.22
488.24
510.36
514.11
497.98
464.70
420.07
370.87
322.76
279.13
241.29
209.21
182.59
161.29
145.05
133.10
123.96
115.60
106.28
95.20
82.61
69.64
57.68
47.69
39.89
33.83
28.71
23.99
19.61
16.10
14.26
14.73
17.66
22.48
28.13
33.30
36.87
38.20
37.17
34.15
29.71
24.34
18.19
11.08
2.46
-8.60
-22.73
-39.80
-58.91
-78.83
-98.38
-116.80
-133.87
-149.93
-166.06
-183.22
-201.73
-221.14
-240.57
-259.13
-276.31
-292.23
-307.65
-324.59
-344.59
-367.79
-392.87
-417.96
-441.29
-461.74
-479.17
-494.47
-511.98
-536.08
-569.80
-614.57
-670.38
-734.83
-801.64
-860.90
-901.57
-920.18
-916.92
-894.08
-855.23
-804.88
-747.14
-683.71
-614.26
-538.24
-464.18
-398.47
-340.34
-282.94
-219.95
-151.15
-83.23
-27.07
7.23
5.42
-34.68
-100.48
-172.37
-236.03
-287.55
-329.61
-365.24
-331.00
-199.96
0.94
209.87
377.19
484.91
538.24
553.08
546.90
533.21
510.09
473.58
426.15
376.49
333.07
300.34
279.72
271.43
271.37
268.64
255.93
233.55
207.65
184.30
166.43
154.30
146.87
142.57
135.38
121.43
101.62
80.44
62.18
48.88
40.75
36.94
36.05
34.66
30.32
23.11
15.05
8.31
4.17
3.05
4.78
8.75
13.50
17.84
21.45
24.95
29.21
34.99
42.80
52.79
64.72
78.04
92.03
106.03
119.70
133.13
146.83
161.52
178.06
197.32
219.98
246.00
274.10
301.53
324.48
339.12
342.88
335.48
318.95
296.80
272.68
249.24
227.79
208.63
191.75
177.29
165.45
156.07
148.46
141.35
133.43
123.87
112.61
100.34
88.30
77.79
69.81
64.80
62.53
62.26
63.09
64.41
66.33
69.67
75.46
84.17
95.02
105.76
113.05
113.45
104.52
85.76
58.83
27.34
-4.06
-30.68
-48.74
-56.12
-52.84
-41.15
-25.22
-10.28
-1.41
-2.15
-13.48
-33.58
-58.56
-83.94
-106.20
-123.81
-137.10
-147.41
-155.74
-162.12
-165.65
-165.27
-160.66
-152.60
-142.73
-132.73
-123.56
-115.18
-106.79
-97.47
-86.79
-75.06
-63.24
-52.41
-43.37
-36.40
-31.20
-27.20
-23.84
-20.83
-18.26
-16.43
-15.60
-15.70
-16.27
-16.65
-16.35
-15.38
-14.31
-14.03
-15.27
-18.22
-22.49
-27.29
-31.83
-35.58
-38.35
-40.15
-41.04
-40.99
-39.97
-38.03
-35.34
-32.14
-28.61
-24.74
-20.37
-15.30
-9.53
-3.33
2.69
7.86
11.63
13.78
14.46
14.09
13.14
12.00
10.88
9.82
8.85
8.00
7.33
6.90
6.71
6.82
7.28
8.19
9.54
11.16
12.69
13.69
13.86
13.18
12.01
10.86
10.21
10.36
11.33
13.04
15.30
18.06
21.25
24.81
28.56
32.27
35.69
38.62
40.92
42.47
43.21
43.01
41.78
39.51
36.31
32.45
28.29
24.25
20.70
17.85
15.73
14.18
12.92
11.72
10.41
8.95
7.41
5.87
4.32
2.69
0.82
-1.36
-3.81
-6.24
-8.28
-9.49
-9.52
-8.25
-5.76
-2.39
1.45
5.30
8.78
11.65
13.75
14.96
15.24
14.53
12.88
10.41
7.38
4.16
1.12
-1.46
-3.44
-4.83
-5.74
-6.29
-6.62
-6.79
-6.87
-6.95
-7.19
-7.78
-8.95
-10.83
-13.38
-16.40
-19.50
-22.26
-24.24
-25.18
-24.91
-23.37
-20.59
-16.62
-11.63
-5.92
-0.02
5.51
10.08
13.31
15.06
15.45
14.74
13.26
11.18
8.65
5.74
2.59
-0.63
-3.72
-6.52
-8.98
-11.13
-13.02
-14.69
-16.13
-17.27
-18.15
-18.83
-19.51
-20.43
-21.79
-23.68
-25.93
-28.10
-29.59
-29.75
-28.19
-24.83
-20.03
-14.35
-8.36
-2.44
3.24
8.59
13.49
17.67
20.85
22.80
23.48
23.06
21.79
20.00
17.93
15.79
13.70
11.76
9.98
8.39
6.94
5.58
4.26
2.93
1.55
0.12
-1.37
-2.85
-4.27
-5.56
-6.67
-7.53
-8.07
-8.23
-7.95
-7.19
-5.87
-3.92
-1.25
2.10
5.97
10.02
13.81
16.86
18.82
19.50
18.90
17.21
14.68
11.65
8.45
5.37
2.58
0.17
-1.87
-3.55
-4.89
-5.88
-6.56
-6.99
-7.30
-7.58
-7.87
-8.13
-8.29
-8.36
-8.44
-8.71
-9.27
-10.06
-10.83
-11.20
-10.81
-9.46
-7.18
-4.20
-0.85
2.55
5.74
8.52
10.75
12.35
13.26
13.51
13.13
12.18
10.76
9.02
7.21
5.61
4.40
3.64
3.19
2.80
2.20
1.26
0.02
-1.30
-2.46
-3.30
-3.81
-4.14
-4.50
-5.08
-5.95
-7.07
-8.25
-9.23
-9.73
-9.50
-8.34
-6.14
-2.94
1.09
5.57
9.98
13.81
16.65
18.33
18.87
18.51
17.48
16.01
14.20
12.07
9.68
7.22
4.90
2.97
1.63
0.88
0.63
0.74
1.05
1.45
1.88
2.26
2.45
2.27
1.56
0.34
-1.28
-3.04
-4.67
-5.93
-6.64
-6.71
-6.05
-4.65
-2.42
0.58
4.19
8.10
11.90
15.17
17.63
19.22
20.08
20.52
20.87
21.39
22.12
22.81
22.98
21.95
19.16
14.46
8.27
1.49
-4.77
-9.62
-12.69
-14.12
-14.37
-13.91
-13.00
-11.66
-9.81
-7.45
-4.77
-2.19
-0.31
0.05
-1.94
-6.87
-14.71
-24.57
-34.84
-43.64
-49.47
-51.74
-50.87
-47.94
-44.15
-40.40
-37.06
-34.24
-32.00
-30.46
-29.82
-30.09
-30.91
-31.67
-31.68
-30.50
-28.18
-25.16
-22.15
-19.81
-18.49
-18.10
-18.23
-18.33
-17.95
-16.96
-15.56
-14.22
-13.46
-13.59
-14.55
-15.90
-16.90
-16.77
-15.05
-11.64
-6.92
-1.47
4.13
9.41
14.13
18.16
21.36
23.55
24.61
24.47
23.28
21.32
18.93
16.41
13.99
11.84
10.08
8.87
8.29
8.36
8.94
9.76
10.52
10.93
10.85
10.20
8.98
7.21
4.89
2.15
-0.88
-3.89
-6.55
-8.55
-9.69
-9.82
-8.94
-7.03
-4.10
-0.32
4.09
8.74
13.16
16.97
19.94
21.94
22.95
23.01
22.19
20.61
18.57
16.37
14.39
12.98
12.42
12.92
14.55
17.10
20.00
22.32
23.05
21.48
17.58
12.04
5.91
0.17
-4.72
-8.92
-12.87
-16.92
-21.03
-24.80
-27.73
-29.42
-29.74
-28.79
-26.77
-23.87
-20.35
-16.52
-12.83
-9.74
-7.62
-6.58
-6.56
-7.31
-8.49
-9.76
-10.83
-11.59
-12.02
-12.28
-12.51
-12.82
-13.21
-13.58
-13.79
-13.84
-13.78
-13.75
-13.82
-13.93
-13.95
-13.67
-12.90
-11.58
-9.80
-7.75
-5.71
-3.94
-2.58
-1.63
-0.82
0.38
2.49
5.95
10.79
16.55
22.33
27.02
29.63
29.53
26.66
21.44
14.64
7.17
-0.22
-7.01
-12.87
-17.61
-21.18
-23.64
-25.17
-26.07
-26.53
-26.62
-26.21
-24.91
-22.33
-18.44
-13.65
-8.71
-4.32
-0.94
1.47
3.26
5.20
8.31
13.39
20.89
30.89
43.13
56.91
71.20
84.51
95.51
103.49
108.11
109.55
108.67
106.98
106.13
107.58
111.42
117.04
123.64
129.95
134.82
137.80
139.68
142.08
147.05
154.78
164.51
174.78
182.36
183.07
172.96
150.43
116.68
75.78
30.68
-16.58
-58.13
-85.22
-93.94
-87.17
-70.35
-51.79
-33.47
-19.34
-12.92
-16.05
-29.65
-50.86
-77.68
-107.84
-139.30
-170.28
-203.60
-241.41
-283.16
-326.08
-366.43
-401.55
-429.51
-449.42
-440.32
-392.33
-309.89
-209.84
-110.86
-24.30
46.11
101.66
145.33
179.51
202.52
213.44
214.00
207.37
198.59
190.59
184.10
178.31
170.98
157.77
136.48
108.09
75.78
42.95
10.43
-24.18
-59.17
-95.76
-137.08
-185.35
-241.10
-302.57
-365.64
-424.39
-471.42
-499.21
-503.44
-484.41
-446.07
-394.75
-337.00
-277.85
-220.36
-166.07
-115.76
-70.98
-33.05
-0.69
29.66
63.00
104.04
154.74
212.65
270.34
315.70
335.91
323.82
278.98
207.99
123.03
39.06
-29.72
-73.79
-91.07
-86.25
-64.51
-31.93
5.52
42.89
77.55
109.42
139.63
168.58
195.57
224.59
260.02
304.45
357.71
418.14
483.73
552.63
622.76
662.33
649.39
582.11
479.07
362.51
244.75
129.68
21.48
-71.55
-139.23
-171.37
-168.41
-143.76
-117.72
-106.83
-116.54
-140.62
-167.93
-188.27
-192.24
-175.73
-141.01
-95.77
-48.81
-10.04
12.63
13.82
-6.12
-38.95
-73.91
-103.23
-123.45
-134.90
-139.53
-137.93
-131.48
-121.31
-108.08
-88.62
-66.58
-46.10
-29.50
-19.11
-11.15
-4.27
1.31
4.43
3.34
-4.70
-21.36
-47.56
-84.10
-119.80
-146.93
-160.94
-162.24
-154.55
-143.06
-131.31
-120.90
-112.49
-105.77
-102.67
-104.59
-110.54
-116.12
-115.04
-101.14
-72.50
-33.46
7.48
40.34
59.51
65.48
62.90
56.18
47.60
37.70
27.60
20.44
19.10
24.34
32.78
39.37
39.65
33.61
26.45
25.14
34.17
52.44
74.62
94.99
110.38
121.30
130.46
140.21
150.59
159.11
163.17
162.79
161.19
163.50
174.09
194.56
222.44
250.64
268.32
266.19
240.81
196.17
141.57
87.17
39.17
1.58
-26.32
-51.36
-80.50
-116.76
-157.93
-198.82
-234.88
-264.01
-286.81
-305.98
-327.96
-357.80
-396.86
-443.20
-494.03
-547.43
-601.71
-653.50
-674.77
-645.31
-563.35
-448.24
-328.03
-225.09
-150.12
-103.15
-77.49
-64.85
-60.89
-64.92
-76.17
-91.48
-105.87
-114.53
-114.00
-102.40
-82.46
-60.09
-41.13
-28.39
-20.92
-15.44
-8.35
2.94
19.59
41.21
64.88
87.11
105.89
121.37
135.37
150.36
168.58
191.45
219.01
249.28
279.04
305.29
326.42
342.72
356.03
368.99
383.80
401.25
420.48
439.99
459.41
480.09
503.83
530.44
555.86
572.87
574.59
558.80
529.53
495.13
463.37
437.44
415.59
394.80
375.55
363.62
367.05
389.80
426.90
464.65
486.45
480.73
446.04
390.58
326.85
265.36
210.78
162.41
117.26
73.54
32.21
-3.76
-31.47
-49.83
-60.20
-65.42
-68.30
-70.42
-71.73
-71.11
-67.65
-61.75
-55.44
-51.96
-54.52
-65.11
-83.85
-109.04
-137.99
-168.20
-198.15
-227.64
-257.39
-288.14
-320.09
-352.57
-384.23
-413.87
-441.02
-466.28
-491.18
-517.65
-547.31
-580.78
-617.03
-652.98
-683.71
-703.40
-706.78
-690.71
-655.24
-603.70
-541.53
-474.59
-407.53
-342.93
-281.22
-221.31
-161.47
-100.51
-38.62
21.96
76.97
120.99
148.62
155.80
140.91
105.15
52.71
-9.88
-74.74
-134.11
-181.90
-214.86
-233.36
-240.32
-239.52
-233.83
-224.43
-211.04
-192.81
-169.09
-139.71
-106.13
-70.21
-33.47
3.47
40.90
79.73
121.39
167.36
217.92
269.58
315.98
349.74
365.27
360.51
337.10
299.60
253.93
205.86
157.99
111.42
66.77
25.18
-12.44
-46.76
-79.93
-114.14
-138.29
-140.91
-115.40
-65.23
-0.64
68.53
136.15
199.05
254.72
299.43
326.16
327.95
301.78
251.87
189.44
128.79
82.09
55.16
46.32
47.29
48.78
45.25
36.77
27.42
21.25
19.90
22.04
25.07
26.22
24.61
21.40
19.03
19.52
22.91
27.70
31.74
33.61
32.84
30.38
27.96
27.17
28.68
31.18
32.55
30.49
23.75
12.37
-2.04
-17.11
-30.73
-41.09
-49.06
-56.33
-64.65
-74.62
-85.61
-95.54
-101.89
-104.15
-101.41
-95.21
-88.06
-82.19
-78.50
-77.16
-77.37
-78.02
-77.95
-75.09
-66.98
-51.02
-25.92
7.44
44.70
80.21
108.95
128.36
139.77
146.55
151.48
153.04
150.58
139.11
116.04
83.21
46.00
11.51
-12.59
-23.62
-24.15
-19.30
-14.63
-12.83
-12.70
-13.17
-13.87
-16.25
-22.79
-36.40
-58.18
-87.11
-118.06
-140.07
-145.45
-130.30
-96.56
-51.18
-5.95
31.81
57.56
71.92
79.06
83.24
87.45
93.09
101.78
114.53
132.09
153.73
177.17
197.48
208.11
204.33
177.61
132.94
83.85
44.65
22.98
16.99
18.86
20.45
15.83
2.71
-18.89
-47.23
-82.29
-124.73
-167.16
-201.27
-221.71
-228.42
-224.37
-213.82
-201.36
-190.97
-183.64
-176.12
-162.67
-137.16
-101.17
-51.54
9.24
73.10
128.14
163.16
170.92
149.44
102.79
40.02
-25.96
-83.42
-118.99
-123.82
-96.11
-42.12
24.55
86.46
126.79
134.89
107.84
52.24
-18.56
-88.06
-141.01
-166.96
-161.75
-127.21
-69.80
-0.24
69.02
124.86
156.13
156.26
124.82
67.83
-3.73
-77.19
-141.58
-189.24
-217.48
-227.94
-224.98
-213.69
-197.50
-176.42
-148.55
-111.96
-66.40
-16.40
28.63
57.16
59.91
34.35
-13.10
-70.44
-123.98
-161.81
-178.61
-176.40
-162.24
-145.93
-138.35
-139.23
-142.85
-147.53
-151.88
-155.95
-160.41
-165.13
-168.32
-166.86
-157.49
-140.06
-117.51
-93.10
-70.52
-52.37
-39.17
-29.29
-19.70
-7.27
8.71
26.62
45.92
65.27
83.08
98.34
111.39
123.93
137.95
153.90
170.61
190.22
213.41
238.90
264.50
288.94
312.60
336.62
361.29
385.90
415.25
451.75
493.80
537.06
577.89
615.58
652.13
690.35
731.98
783.61
844.66
905.23
950.02
966.48
950.59
907.42
847.60
732.95
554.70
335.15
116.18
-67.17
-200.61
-286.12
-332.99
-352.38
-353.93
-340.47
-314.12
-279.79
-244.77
-214.87
-192.60
-178.19
-171.75
-171.39
-170.39
-164.67
-154.77
-144.54
-137.59
-135.22
-136.79
-141.06
-147.02
-150.71
-149.85
-145.12
-139.22
-134.47
-131.53
-129.68
-127.84
-125.36
-120.76
-113.87
-106.29
-100.59
-98.82
-101.63
-108.40
-117.94
-129.20
-141.24
-154.02
-168.44
-185.70
-206.44
-230.24
-255.85
-281.59
-306.14
-329.03
-350.75
-372.88
-397.94
-428.72
-467.08
-512.42
-560.49
-603.74
-633.24
-641.64
-625.76
-587.62
-533.53
-471.94
-411.25
-358.14
-316.82
-288.71
-272.25
-263.17
-255.46
-243.11
-222.08
-191.51
-153.69
-112.74
-72.79
-36.68
-5.41
21.47
45.19
67.11
88.63
111.27
136.42
164.82
195.75
226.62
253.20
270.94
276.80
271.22
258.60
245.67
238.54
239.81
247.42
256.01
259.61
254.17
239.50
218.91
197.32
178.94
165.92
158.55
156.18
157.85
161.66
165.68
168.42
168.98
166.81
161.61
153.42
142.73
130.44
116.43
101.46
87.55
76.98
69.82
62.93
51.29
30.81
0.33
-39.82
-87.15
-137.92
-188.29
-235.19
-275.69
-306.13
-322.44
-312.18
-272.84
-216.29
-162.80
-127.49
-113.36
-114.43
-122.39
-131.19
-138.43
-145.62
-153.81
-161.67
-166.06
-164.21
-155.27
-141.59
-126.21
-111.55
-99.94
-91.90
-85.72
-78.66
-68.78
-56.11
-42.08
-28.16
-14.94
-2.59
9.83
24.05
41.59
62.50
85.14
107.11
126.50
142.82
156.51
169.01
182.25
198.18
218.02
241.62
266.95
290.10
305.95
309.86
300.19
280.06
257.05
240.40
236.98
248.21
269.48
292.38
308.50
312.72
304.35
286.02
261.39
233.35
203.51
172.87
142.61
114.22
88.77
66.09
44.24
20.33
-7.98
-40.92
-75.87
-108.10
-132.35
-144.89
-144.82
-134.28
-117.43
-98.95
-82.69
-70.88
-64.22
-62.30
-64.08
-68.27
-73.60
-79.19
-84.90
-91.56
-100.62
-113.43
-130.33
-150.21
-170.80
-189.59
-204.94
-216.64
-225.72
-233.69
-241.57
-249.28
-255.51
-258.02
-254.17
-241.65
-219.19
-187.21
-147.85
-104.56
-60.99
-19.92
17.59
52.11
85.49
119.96
157.61
199.68
245.82
293.39
337.24
370.67
387.51
384.48
362.41
325.95
281.73
236.15
193.87
157.53
128.37
107.16
94.79
91.82
97.58
109.60
123.83
135.88
142.19
141.51
135.36
127.97
124.96
130.79
146.18
166.92
185.04
192.23
183.98
162.39
135.59
113.38
102.21
102.20
108.32
114.59
117.95
119.34
121.13
123.43
122.69
113.97
94.94
68.64
41.65
19.48
2.53
-14.55
-39.38
-77.03
-126.95
-183.21
-237.37
-284.83
-327.32
-371.14
-422.06
-480.69
-541.10
-592.77
-624.73
-627.11
-597.06
-539.35
-463.43
-378.61
-291.88
-208.69
-134.25
-73.59
-25.25
15.32
54.03
96.25
146.06
205.14
271.82
341.50
408.43
473.10
535.54
592.74
638.64
668.06
679.38
674.14
655.13
589.63
464.63
295.46
119.99
-27.42
-132.12
-197.49
-235.35
-257.83
-273.14
-278.63
-269.98
-246.91
-215.72
-185.30
-163.51
-154.43
-158.24
-172.22
-188.02
-199.26
-204.56
-207.89
-213.04
-219.69
-223.77
-220.07
-207.08
-186.07
-162.17
-139.97
-125.62
-120.58
-121.35
-123.36
-123.64
-123.49
-124.63
-125.36
-119.30
-99.51
-61.82
-8.08
54.20
117.10
173.91
213.78
228.14
219.55
198.83
175.25
154.91
128.67
90.03
38.76
-19.60
-74.44
-110.29
-115.96
-86.42
-32.06
22.15
52.90
52.25
29.44
2.90
-12.33
-13.31
-8.23
-8.21
-18.18
-32.58
-39.84
-31.38
-6.43
27.42
56.76
67.77
53.92
20.97
-15.46
-39.48
-43.53
-30.22
-8.93
9.45
17.36
13.63
3.61
-5.65
-9.45
-7.02
-0.57
6.40
9.72
4.98
-9.61
-32.22
-58.25
-81.84
-97.03
-99.19
-86.23
-54.73
-9.27
41.18
86.29
117.03
127.30
116.14
85.58
47.11
16.10
0.77
0.45
10.59
27.39
47.35
68.51
89.69
109.36
124.54
131.35
129.55
122.81
116.63
112.62
110.69
109.97
108.95
104.17
90.78
65.33
26.41
-19.99
-70.75
-119.11
-154.96
-169.40
-161.17
-138.28
-113.60
-99.10
-100.61
-122.51
-160.99
-205.68
-245.75
-276.09
-297.62
-313.06
-323.68
-296.02
-219.33
-112.52
-6.41
80.06
142.90
185.77
214.83
234.41
251.57
264.28
267.57
260.56
246.63
229.07
208.34
185.82
162.26
139.12
113.28
78.67
34.66
-13.26
-58.15
-95.77
-124.42
-143.96
-154.46
-159.45
-167.87
-184.07
-205.94
-229.06
-251.51
-274.06
-298.83
-327.47
-323.53
-273.91
-196.33
-120.18
-61.47
-21.17
6.10
25.99
42.89
58.93
68.80
69.43
63.18
55.06
48.70
45.40
45.19
47.98
53.60
56.86
54.36
46.88
37.61
28.98
22.02
17.18
14.65
14.67
14.12
10.89
5.38
-0.76
-6.85
-13.72
-22.54
-33.02
-42.71
-48.27
-45.39
-30.47
-3.61
29.83
61.18
82.23
88.60
80.80
62.22
37.73
12.01
-11.03
-28.05
-36.21
-33.84
-21.94
-4.89
10.70
18.60
16.14
5.26
-8.42
-18.57
-21.24
-16.30
-6.93
3.37
11.91
17.84
22.40
27.49
34.69
44.36
55.55
66.56
75.66
81.50
83.22
80.64
73.84
63.60
52.01
41.79
35.53
33.72
33.73
31.01
21.28
4.03
-16.65
-33.22
-38.63
-29.81
-8.97
17.52
41.84
57.23
59.94
49.56
29.29
5.24
-14.54
-22.69
-15.52
5.57
34.05
62.05
83.52
96.53
103.00
107.12
112.22
119.98
130.36
141.01
149.35
151.40
143.25
122.96
92.01
55.56
21.20
-3.37
-14.14
-9.84
5.68
25.87
42.99
51.62
46.36
24.82
-10.67
-53.89
-91.69
-111.72
-105.65
-72.84
-21.39
34.24
79.19
103.96
105.54
92.06
73.00
55.99
43.31
31.21
12.55
-18.59
-52.33
-96.92
-139.68
-168.82
-176.11
-159.71
-125.21
-83.58
-47.02
-24.83
-22.84
-38.31
-67.48
-105.95
-149.34
-192.94
-230.70
-255.33
-260.21
-243.27
-204.26
-148.35
-82.67
-13.81
53.19
114.22
164.95
200.76
217.33
214.51
194.48
162.51
125.22
88.67
57.23
33.15
16.69
6.43
0.82
-1.99
-2.69
-0.30
7.21
20.69
37.93
53.46
60.45
54.04
32.55
-1.17
-40.75
-78.21
-106.23
-118.68
-111.43
-82.51
-33.45
27.82
89.93
141.46
174.61
186.62
180.07
161.83
140.75
124.34
112.21
100.78
86.74
69.51
50.26
30.90
13.42
-0.76
-11.53
-27.22
-55.00
-95.82
-143.48
-189.66
-228.86
-260.37
-287.16
-314.00
-354.38
-417.65
-504.23
-605.42
-709.81
-808.23
-893.97
-961.34
-949.92
-826.91
-607.61
-350.12
-114.19
68.33
193.16
271.26
317.81
345.90
355.46
345.29
319.33
288.04
262.79
249.53
248.39
255.83
267.39
272.34
263.25
239.68
208.38
178.73
156.65
144.02
139.05
137.47
129.74
108.97
75.08
35.62
2.30
-14.37
-11.52
6.35
30.26
49.45
58.29
59.40
60.32
69.49
89.92
118.31
147.99
173.05
190.85
203.26
214.80
223.33
228.18
224.58
206.57
172.19
126.17
78.45
39.11
13.92
3.14
1.07
0.52
-4.02
-14.41
-29.53
-46.50
-62.99
-77.58
-89.61
-98.54
-104.40
-107.72
-108.75
-108.11
-106.15
-104.86
-106.96
-113.27
-123.51
-134.99
-143.05
-142.31
-129.98
-103.56
-69.83
-41.85
-31.04
-40.93
-66.77
-100.34
-133.01
-160.58
-178.34
-183.05
-173.58
-151.25
-119.36
-81.68
-41.76
-0.60
40.92
86.55
140.10
203.55
276.14
354.23
432.16
501.61
555.27
564.71
514.21
410.59
282.33
162.38
70.94
17.50
-13.01
-35.01
-58.71
-85.21
-111.17
-134.05
-150.57
-158.39
-156.40
-146.73
-132.40
-118.41
-106.60
-96.81
-87.74
-77.81
-66.29
-53.08
-39.28
-24.63
-8.42
12.10
38.72
69.70
99.30
119.61
124.06
110.19
81.89
46.60
12.86
-13.71
-32.34
-45.88
-57.98
-70.00
-80.39
-85.26
-81.52
-68.54
-49.12
-28.68
-12.86
-5.20
-5.57
-10.75
-16.08
-18.02
-15.64
-10.92
-7.45
-8.16
-13.74
-22.67
-33.13
-44.16
-55.93
-68.07
-79.13
-87.08
-90.78
-91.43
-92.82
-100.38
-118.01
-145.98
-178.00
-202.86
-210.33
-198.44
-174.22
-147.62
-126.46
-113.78
-109.12
-109.55
-110.95
-109.23
-100.37
-83.95
-61.63
-37.51
-16.12
-1.88
2.91
-1.45
-13.03
-29.29
-47.48
-63.82
-81.24
-98.02
-111.92
-121.11
-125.15
-125.39
-124.40
-124.86
-128.16
-134.28
-141.05
-146.41
-148.85
-147.91
-144.26
-139.39
-134.81
-131.32
-128.91
-126.20
-121.98
-115.43
-106.39
-95.38
-83.51
-71.94
-61.64
-53.16
-46.16
-40.28
-35.14
-30.39
-25.73
-20.92
-15.68
-9.66
-2.49
6.41
17.32
30.14
44.39
59.28
73.73
86.59
96.79
103.48
106.26
105.03
100.08
91.97
81.56
69.74
57.49
45.62
34.81
25.53
17.98
12.18
7.93
4.97
2.89
1.34
-0.02
-1.48
-3.18
-5.22
-7.54
-10.07
-12.66
-15.09
-17.12
-18.50
-19.06
-18.63
-17.14
-14.59
-11.08
-6.84
-2.16
2.61
7.08
10.87
13.65
15.17
15.30
14.06
11.58
8.15
4.12
-0.06
-3.97
-7.23
-9.56
-10.78
-10.85
-9.83
-7.92
-5.39
-2.52
0.40
3.11
5.42
7.17
8.32
8.87
8.84
8.30
7.34
6.07
4.62
3.12
1.73
0.60
-0.08
-0.20
0.40
1.82
4.12
7.28
11.15
15.55
20.18
24.78
29.07
32.87
36.07
39.85
44.98
51.22
57.41
61.65
63.74
64.00
62.83
60.66
59.00
58.82
59.96
61.41
61.28
59.28
55.61
50.58
44.77
41.79
44.28
52.35
63.89
74.91
85.37
96.42
109.23
125.08
152.91
198.15
258.76
326.31
387.15
438.66
481.67
517.35
547.56
589.93
655.22
739.41
826.20
889.13
924.96
937.77
932.57
916.07
920.30
967.15
1056.12
1168.37
1268.03
1352.96
1427.75
1493.09
1548.71
1625.96
1744.92
1899.79
2064.20
2190.76
2276.49
2328.33
2350.69
2128.87
1563.88
728.59
-170.91
-826.40
-1256.85
-1523.34
-1672.94
-1760.18
-1801.03
-1769.54
-1651.94
-1489.04
-1336.19
-1255.42
-1244.12
-1276.09
-1326.04
-1373.69
-1384.41
-1340.54
-1250.02
-1137.25
-1042.48
-970.01
-914.88
-873.38
-840.83
-799.30
-737.62
-658.38
-573.31
-504.51
-452.37
-412.36
-381.34
-356.13
-327.85
-291.30
-247.92
-203.08
-167.04
-139.45
-117.79
-100.39
-85.63
-69.88
-50.76
-28.63
-5.97
11.58
21.20
20.97
10.44
-8.24
-30.85
-52.21
-68.09
-76.33
-77.39
-73.47
-67.19
-60.40
-54.29
-49.50
-46.75
-46.96
-50.86
-58.46
-68.78
-80.59
-91.74
-100.69
-106.50
-108.89
-107.94
-103.77
-96.32
-85.48
-71.30
-53.61
-34.22
-15.09
1.91
15.44
24.93
30.73
33.75
35.08
35.70
35.93
35.86
35.34
34.16
32.33
30.11
27.88
25.88
24.29
22.90
21.47
19.78
17.74
15.52
13.55
12.28
11.95
12.53
13.59
14.64
15.12
14.63
12.95
10.34
7.43
5.37
5.42
8.63
15.27
24.33
33.77
40.95
43.77
41.51
35.20
27.20
20.17
15.92
14.67
15.15
15.32
13.50
9.17
3.24
-2.49
-6.25
-7.26
-6.21
-4.91
-5.53
-9.30
-15.91
-23.41
-29.19
-31.02
-28.15
-21.53
-13.13
-5.20
0.55
3.18
2.08
-3.28
-13.00
-26.02
-39.29
-48.14
-47.99
-36.90
-17.03
5.55
23.52
31.88
30.21
22.67
15.44
13.22
16.88
23.97
31.30
37.68
45.38
58.64
80.41
109.28
138.63
159.04
163.03
149.04
122.62
93.76
71.87
61.56
60.71
63.12
61.51
51.08
31.75
7.44
-16.41
-35.85
-49.76
-59.21
-65.81
-70.31
-72.15
-70.05
-63.53
-53.57
-42.68
-34.03
-29.99
-31.34
-37.06
-44.86
-51.95
-56.18
-56.57
-53.49
-48.29
-42.67
-38.03
-35.09
-33.87
-33.64
-33.58
-33.24
-32.75
-32.65
-33.55
-35.62
-38.49
-41.41
-43.50
-44.22
-43.76
-42.90
-42.80
-44.44
-48.08
-53.34
-59.11
-63.97
-66.61
-66.34
-63.34
-58.62
-53.55
-49.20
-46.20
-44.37
-42.97
-41.12
-38.46
-35.50
-33.15
-32.10
-32.33
-33.95
-37.15
-42.04
-47.97
-52.99
-54.12
-48.26
-33.75
-11.46
14.32
37.94
55.11
64.65
68.29
68.89
68.68
68.37
67.53
64.48
57.53
45.65
28.46
6.01
-21.41
-52.95
-87.15
-116.53
-133.78
-135.25
-122.43
-99.23
-68.47
-31.80
8.27
47.08
78.79
97.97
102.40
94.51
80.03
65.44
55.16
50.43
50.30
53.09
56.91
60.46
63.38
65.83
67.97
69.62
70.33
69.87
68.49
67.11
65.41
63.28
60.67
57.40
53.02
47.04
39.23
29.85
19.47
8.79
-1.23
-9.72
-16.15
-20.55
-23.27
-24.80
-25.52
-25.69
-25.47
-24.82
-23.78
-22.45
-21.10
-19.96
-19.16
-18.62
-18.16
-17.69
-17.14
-16.66
-16.46
-16.70
-17.36
-18.22
-18.91
-19.05
-18.36
-16.71
-14.03
-10.38
-5.92
-1.01
3.85
7.96
10.76
11.96
11.71
10.63
9.44
8.69
8.55
8.76
8.83
8.33
7.09
5.24
3.14
1.14
-0.54
-1.88
-3.01
-3.99
-4.82
-5.35
-5.46
-5.07
-4.39
-3.80
-3.70
-4.30
-5.39
-6.46
-6.83
-5.96
-3.64
-0.03
4.37
9.00
13.27
16.73
19.03
19.94
19.46
17.78
15.24
12.27
9.23
6.38
3.95
2.10
1.02
0.85
1.52
2.70
3.84
4.34
3.79
2.13
-0.41
-3.42
-6.48
-9.24
-11.48
-13.01
-13.63
-13.24
-11.85
-9.70
-7.19
-4.70
-2.53
-0.73
0.81
2.19
3.41
4.32
4.64
4.23
3.13
1.62
0.06
-1.26
-2.25
-2.95
-3.41
-3.62
-3.43
-2.69
-1.37
0.33
2.03
3.33
3.95
3.96
3.60
3.15
2.77
2.42
1.83
0.77
-0.83
-2.92
-5.24
-7.52
-9.48
-10.91
-11.61
-11.44
-10.42
-8.71
-6.77
-5.08
-4.07
-3.90
-4.44
-5.33
-6.22
-6.91
-7.38
-7.82
-8.29
-8.79
-9.12
-8.99
-8.21
-6.88
-5.43
-4.66
-5.51
-8.66
-14.40
-22.37
-31.46
-40.07
-46.18
-47.76
-43.05
-31.09
-12.01
12.69
40.22
67.06
89.59
104.86
111.16
108.22
97.03
79.73
59.06
37.96
19.07
4.28
-5.50
-10.31
-10.93
-8.52
-4.20
1.10
6.73
12.27
17.43
22.00
25.83
28.77
30.72
31.60
31.33
29.81
26.82
22.00
14.95
5.42
-6.47
-19.98
-33.71
-45.98
-55.06
-59.85
-60.08
-56.46
-50.36
-43.46
-37.17
-32.29
-28.97
-26.86
-25.34
-23.85
-21.97
-19.45
-16.15
-12.04
-7.16
-1.74
3.74
8.64
12.36
14.53
15.12
14.58
13.59
12.90
13.06
14.29
16.41
18.98
21.59
23.94
26.03
28.04
30.18
32.50
34.80
36.65
37.57
37.28
35.78
33.34
30.32
27.08
23.87
20.83
18.14
16.00
14.62
13.98
13.75
13.30
11.98
9.36
5.51
0.91
-3.83
-8.25
-12.26
-16.06
-19.92
-23.95
-27.94
-31.55
-34.47
-36.65
-38.27
-39.53
-40.45
-40.83
-40.35
-38.79
-36.19
-32.86
-29.25
-25.69
-22.29
-18.98
-15.67
-12.50
-9.79
-7.95
-7.22
-7.50
-8.48
-9.77
-11.11
-12.48
-14.02
-15.84
-17.87
-19.78
-21.17
-21.80
-21.68
-21.09
-20.45
-20.17
-20.39
-21.09
-22.04
-22.99
-23.71
-24.09
-24.05
-23.52
-22.50
-21.01
-19.10
-16.86
-14.31
-11.33
-7.72
-3.18
2.57
9.70
18.21
27.82
37.97
47.85
56.50
63.01
66.75
67.57
65.84
62.37
58.04
53.51
48.97
44.09
38.19
30.58
20.93
9.53
-2.65
-14.13
-23.30
-28.71
-29.59
-25.98
-18.72
-9.31
0.53
9.20
15.52
18.93
19.49
17.65
14.23
10.00
5.69
1.80
-1.41
-3.88
-5.71
-7.00
-7.83
-8.16
-7.93
-7.07
-5.65
-3.83
-1.94
-0.34
0.61
0.69
-0.11
-1.60
-3.44
-5.26
-6.68
-7.52
-7.71
-7.34
-6.58
-5.60
-4.60
-3.74
-3.12
-2.77
-2.70
-2.79
-2.92
-2.91
-2.54
-1.72
-0.46
1.04
2.44
3.38
3.65
3.30
2.57
1.85
1.41
1.35
1.59
1.92
2.17
2.30
2.32
2.21
1.88
1.20
0.12
-1.30
-2.78
-3.98
-4.62
-4.63
-4.26
-3.96
-4.18
-5.15
-6.74
-8.56
-10.12
-11.09
-11.39
-11.20
-10.71
-10.00
-8.99
-7.52
-5.57
-3.31
-1.12
0.64
1.82
2.53
3.08
3.73
4.51
5.25
5.68
5.65
5.26
4.84
4.76
5.27
6.33
7.64
8.78
9.39
9.29
8.50
7.23
5.72
4.20
2.75
1.36
-0.04
-1.50
-2.97
-4.32
-5.33
-5.91
-6.01
-5.79
-5.41
-4.98
-4.45
-3.70
-2.59
-1.13
0.50
2.01
3.17
3.88
4.23
4.37
4.39
4.29
4.00
3.44
2.64
1.75
0.94
0.40
0.14
0.07
-0.02
-0.28
-0.83
-1.62
-2.50
-3.28
-3.77
-3.92
-3.78
-3.51
-3.29
-3.25
-3.34
-3.45
-3.39
-3.01
-2.29
-1.33
-0.33
0.51
1.11
1.61
2.26
3.25
4.66
6.36
8.08
9.58
10.76
11.65
12.41
13.12
13.72
13.98
13.67
12.75
11.41
10.00
8.87
8.25
8.16
8.25
7.85
6.34
3.46
-0.54
-5.00
-9.00
-11.73
-12.75
-12.47
-12.03
-12.60
-14.65
-17.65
-20.34
-21.03
-18.09
-10.24
2.65
19.57
38.76
58.28
76.04
89.95
98.52
101.27
99.11
93.40
85.22
75.19
63.20
48.21
28.34
1.63
-33.02
-71.26
-104.76
-126.43
-134.38
-131.08
-120.57
-106.53
-91.41
-76.39
-61.77
-48.31
-37.64
-31.33
-29.88
-32.27
-36.30
-39.40
-39.61
-36.19
-30.19
-24.00
-19.88
-18.75
-19.86
-21.35
-21.34
-18.74
-13.71
-7.77
-3.31
-2.14
-5.38
-13.18
-24.40
-36.47
-45.44
-46.74
-36.72
-14.65
16.51
50.62
79.54
96.94
101.08
94.36
81.40
66.52
51.97
38.10
24.56
11.67
0.84
-6.03
-8.04
-5.41
0.06
6.36
11.84
15.82
18.57
20.89
23.85
27.99
33.37
39.39
44.73
47.44
45.44
37.42
23.31
4.98
-14.85
-33.19
-47.59
-56.96
-61.66
-63.05
-62.59
-61.61
-60.02
-57.55
-53.39
-46.58
-36.14
-21.11
-0.65
25.75
57.69
95.11
132.37
161.38
175.63
173.76
159.04
136.44
115.33
95.19
75.37
55.89
38.46
26.02
21.03
25.56
39.44
60.02
82.21
101.41
113.38
115.38
106.47
87.56
61.08
30.53
0.09
-26.90
-47.71
-61.76
-70.17
-74.90
-77.65
-79.44
-80.72
-81.63
-82.68
-83.84
-84.89
-85.18
-83.87
-80.33
-74.57
-67.44
-60.34
-54.88
-51.97
-51.89
-54.24
-58.12
-62.32
-65.56
-66.83
-65.60
-62.20
-57.54
-52.97
-49.79
-48.80
-50.09
-53.02
-56.61
-59.92
-62.26
-63.26
-62.68
-60.25
-55.99
-50.11
-43.12
-35.73
-28.39
-21.16
-13.65
-5.28
4.38
15.21
26.64
37.83
48.01
56.64
63.43
68.15
70.49
70.19
67.16
61.77
54.78
47.10
39.53
32.53
26.11
19.97
13.88
7.76
1.86
-3.40
-7.75
-11.01
-13.20
-14.43
-14.84
-14.53
-13.58
-12.10
-10.23
-8.16
-5.97
-3.75
-1.50
0.74
2.90
4.89
6.59
7.93
8.89
9.52
9.85
9.90
9.63
8.99
8.02
6.85
5.66
4.64
3.90
3.36
2.90
2.35
1.64
0.86
0.18
-0.19
-0.18
0.12
0.51
0.77
0.78
0.57
0.27
0.04
-0.05
-0.02
-0.01
-0.13
-0.49
-1.11
-1.96
-2.97
-4.07
-5.21
-6.41
-7.75
-9.36
-11.30
-13.55
-15.99
-18.34
-20.34
-21.72
-22.25
-21.83
-20.45
-18.20
-15.28
-12.01
-8.79
-6.01
-4.03
-2.97
-2.83
-3.43
-4.49
-5.68
-6.75
-7.54
-8.01
-8.18
-8.12
-7.86
-7.40
-6.75
-5.94
-5.03
-4.18
-3.48
-3.00
-2.69
-2.49
-2.33
-2.23
-2.23
-2.38
-2.65
-2.94
-3.18
-3.34
-3.45
-3.59
-3.77
-3.91
-3.86
-3.51
-2.90
-2.18
-1.54
-1.11
-0.86
-0.63
-0.24
0.38
1.17
1.98
2.63
3.02
3.17
3.18
3.16
3.15
3.16
3.10
2.92
2.64
2.32
2.09
2.02
2.11
2.32
2.60
3.03
3.71
4.77
6.23
8.01
9.88
11.68
13.33
14.89
16.45
18.05
19.57
20.83
21.61
21.76
21.21
20.03
18.32
16.28
14.08
11.93
9.99
8.36
7.05
5.98
5.07
4.22
3.37
2.49
1.59
0.73
0.02
-0.41
-0.45
-0.11
0.52
1.29
2.03
2.56
2.76
2.57
1.97
1.03
-0.08
-1.10
-1.73
-1.74
-1.05
0.22
1.85
3.56
5.17
6.62
7.96
9.27
10.56
11.72
12.60
13.02
12.90
12.29
11.38
10.38
9.49
8.82
8.39
8.12
7.90
7.58
7.06
6.32
5.39
4.43
3.58
2.87
2.18
1.14
-0.77
-3.99
-8.69
-14.65
-21.20
-27.38
-32.12
-34.55
-34.13
-30.77
-24.78
-16.77
-7.56
1.94
10.88
18.46
24.10
27.46
28.47
27.31
24.42
20.33
15.56
10.54
5.57
0.84
-3.52
-7.36
-10.53
-12.87
-14.36
-15.12
-15.44
-15.66
-16.03
-16.57
-17.11
-17.31
-16.84
-15.58
-13.64
-11.29
-8.89
-6.70
-4.83
-3.23
-1.80
-0.47
0.71
1.64
2.25
2.51
2.47
2.21
1.78
1.19
0.44
-0.47
-1.50
-2.59
-3.71
-4.81
-5.90
-6.92
-7.79
-8.42
-8.80
-9.02
-9.21
-9.51
-9.94
-10.42
-10.77
-10.92
-10.90
-10.83
-10.88
-11.12
-11.53
-11.95
-12.26
-12.40
-12.40
-12.28
-12.00
-11.42
-10.36
-8.72
-6.44
-3.62
-0.46
2.86
6.13
9.24
12.06
14.47
16.40
17.81
18.72
19.19
19.27
19.00
18.36
17.33
15.96
14.38
12.78
11.41
10.37
9.63
9.02
8.36
7.50
6.42
5.12
3.61
1.91
0.03
-1.97
-3.92
-5.56
-6.64
-6.95
-6.36
-4.89
-2.62
0.31
3.71
7.31
10.86
14.05
16.61
18.31
19.04
18.87
18.03
16.89
15.86
15.17
14.85
14.68
14.24
13.15
11.13
8.15
4.48
0.70
-2.38
-3.83
-2.78
1.39
8.81
19.01
30.97
43.33
54.64
63.60
69.26
71.13
69.15
63.65
55.30
44.92
33.49
21.94
11.11
1.63
-6.13
-12.09
-16.46
-19.68
-22.32
-24.98
-28.22
-32.45
-37.87
-44.35
-51.43
-58.28
-63.87
-67.21
-67.55
-64.73
-59.15
-51.68
-43.36
-35.15
-27.71
-21.29
-15.91
-11.38
-7.47
-3.98
-0.77
2.26
5.16
7.91
10.44
12.66
14.46
15.78
16.64
17.14
17.39
17.48
17.47
17.33
16.95
16.28
15.21
13.74
11.83
9.46
6.68
3.57
0.30
-2.91
-5.81
-8.27
-10.21
-11.69
-12.80
-13.64
-14.31
-14.87
-15.35
-15.78
-16.12
-16.31
-16.28
-16.04
-15.66
-15.28
-15.04
-15.01
-15.16
-15.33
-15.29
-14.81
-13.73
-11.95
-9.48
-6.48
-3.18
0.09
2.98
5.23
6.73
7.50
7.69
7.43
6.85
6.03
5.03
3.90
2.75
1.67
0.77
0.11
-0.34
-0.60
-0.72
-0.75
-0.73
-0.68
-0.60
-0.50
-0.39
-0.29
-0.24
-0.30
-0.54
-0.97
-1.52
-2.08
-2.51
-2.66
-2.46
-1.84
-0.73
0.97
3.32
6.30
9.68
13.12
16.19
18.43
19.63
19.75
18.96
17.51
15.67
13.60
11.37
9.03
6.64
4.31
2.23
0.50
-0.81
-1.68
-2.10
-2.11
-1.71
-1.02
-0.26
0.34
0.61
0.52
0.20
-0.20
-0.61
-1.05
-1.65
-2.52
-3.58
-4.65
-5.40
-5.58
-5.10
-4.00
-2.49
-0.81
0.82
2.28
3.47
4.39
5.01
5.33
5.38
5.25
5.02
4.77
4.53
4.24
3.80
3.11
2.16
1.03
-0.11
-1.06
-1.76
-2.23
-2.56
-2.89
-3.24
-3.56
-3.76
-3.78
-3.69
-3.63
-3.76
-4.12
-4.66
-5.23
-5.65
-5.69
-5.23
-4.24
-2.76
-0.90
1.28
3.62
5.99
8.33
10.65
12.93
15.10
17.05
18.67
19.92
20.46
19.93
18.17
15.30
11.71
7.92
4.53
2.17
1.41
1.84
2.69
3.27
3.31
2.92
2.27
1.64
1.48
2.46
4.19
6.18
8.25
10.77
14.08
17.87
21.23
23.09
22.63
18.11
8.24
-7.12
-26.71
-48.92
-72.91
-98.96
-127.97
-151.56
-161.97
-156.16
-137.95
-113.86
-88.56
-64.32
-41.97
-21.82
-3.73
11.28
22.27
29.08
32.53
33.94
34.33
34.44
34.85
36.11
37.60
38.35
37.78
36.07
33.90
31.84
30.24
29.38
29.50
30.07
30.37
29.91
28.68
27.10
25.58
24.46
24.09
24.71
26.26
28.56
31.43
34.79
38.72
43.12
47.71
52.13
55.80
58.19
58.72
57.04
53.03
47.01
39.51
31.19
22.69
14.50
6.89
-0.18
-6.36
-12.28
-18.14
-23.88
-29.12
-33.43
-36.51
-38.39
-39.46
-40.35
-41.60
-43.33
-45.27
-46.81
-47.25
-46.32
-44.30
-42.04
-40.68
-41.08
-43.34
-46.80
-50.25
-52.56
-53.11
-52.09
-50.37
-49.03
-49.05
-51.03
-55.36
-62.20
-70.24
-77.03
-78.90
-72.14
-54.81
-28.23
2.95
32.31
54.23
66.11
68.89
65.94
60.97
56.23
52.08
47.84
43.00
37.97
33.90
31.71
31.44
32.16
32.50
31.23
28.02
23.47
18.78
15.14
13.21
12.85
13.27
13.45
12.56
10.38
7.25
3.94
1.21
-0.48
-1.19
-1.35
-1.58
-2.38
-3.99
-6.31
-9.10
-12.04
-14.94
-17.76
-20.61
-23.58
-26.67
-29.69
-32.30
-33.99
-34.28
-32.74
-29.10
-23.39
-15.93
-7.28
1.80
10.57
18.43
25.09
30.55
35.03
38.74
41.74
43.82
44.61
43.81
41.35
37.60
33.29
29.34
26.46
24.94
24.47
24.42
24.17
23.38
22.21
21.20
21.06
22.36
25.55
30.81
37.90
45.83
52.59
55.48
51.95
40.80
23.08
2.05
-17.95
-33.14
-41.67
-43.93
-41.84
-37.57
-32.55
-27.25
-21.64
-15.80
-10.34
-6.11
-3.77
-3.41
-4.47
-6.14
-7.61
-8.54
-9.03
-9.50
-10.38
-11.86
-13.79
-15.67
-16.81
-16.65
-15.01
-12.15
-8.73
-5.48
-3.01
-1.57
-1.02
-1.01
-1.14
-1.21
-1.26
-1.47
-2.07
-3.14
-4.58
-6.17
-7.74
-9.25
-10.85
-12.78
-15.20
-18.06
-21.14
-24.13
-26.80
-29.14
-31.37
-33.77
-36.56
-39.73
-43.06
-46.22
-48.88
-50.85
-52.06
-52.45
-51.90
-50.21
-47.27
-43.13
-38.06
-32.41
-26.40
-19.99
-12.94
-5.16
3.07
11.10
18.21
24.10
29.06
33.81
39.02
44.84
50.66
55.41
58.12
58.41
56.67
53.77
50.65
47.95
45.90
44.49
43.76
43.93
45.29
47.93
51.50
55.17
57.81
58.37
56.30
51.68
45.05
37.20
28.72
19.99
11.12
2.24
-6.41
-14.43
-21.36
-26.80
-30.46
-32.18
-31.86
-29.47
-25.02
-18.66
-10.69
-1.72
7.27
14.96
19.82
20.56
16.57
8.26
-2.83
-14.53
-24.62
-31.50
-34.59
-34.25
-31.42
-27.14
-22.23
-17.20
-12.36
-8.03
-4.49
-1.92
-0.28
0.78
1.79
3.20
5.17
7.41
9.26
10.01
9.14
6.67
3.06
-0.89
-4.34
-6.69
-7.71
-7.59
-6.74
-5.66
-4.81
-4.45
-4.67
-5.38
-6.41
-7.53
-8.51
-9.19
-9.49
-9.37
-8.83
-7.86
-6.44
-4.55
-2.25
0.30
2.84
5.04
6.58
7.32
7.27
6.63
5.70
4.74
3.90
3.16
2.41
1.56
0.62
-0.24
-0.77
-0.76
-0.24
0.56
1.25
1.52
1.26
0.63
-0.07
-0.56
-0.72
-0.63
-0.41
-0.11
0.31
0.98
1.93
3.01
3.96
4.51
4.51
4.06
3.44
2.97
2.85
3.12
3.68
4.35
5.02
5.60
6.09
6.48
6.71
6.68
6.35
5.71
4.85
3.91
3.01
2.24
1.60
1.03
0.46
-0.09
-0.60
-1.00
-1.27
-1.45
-1.59
-1.77
-1.98
-2.14
-2.17
-1.99
-1.62
-1.15
-0.73
-0.42
-0.19
0.09
0.62
1.47
2.63
3.90
5.02
5.76
6.03
5.90
5.50
5.02
4.52
3.97
3.32
2.50
1.54
0.55
-0.35
-1.04
-1.47
-1.61
-1.43
-0.96
-0.28
0.44
0.96
1.06
0.56
-0.48
-1.87
-3.26
-4.32
-4.86
-4.82
-4.32
-3.47
-2.39
-1.12
0.32
1.93
3.67
5.48
7.28
8.96
10.31
11.02
10.73
9.13
6.10
1.81
-3.24
-8.35
-12.80
-15.98
-17.57
-17.46
-15.81
-12.94
-9.33
-5.51
-2.10
0.39
1.58
1.33
-0.19
-2.56
-5.26
-7.77
-9.76
-11.10
-11.83
-11.99
-11.53
-10.25
-7.95
-4.57
-0.36
4.19
8.36
11.53
13.33
13.72
12.94
11.38
9.41
7.37
5.47
3.91
2.81
2.27
2.29
2.81
3.63
4.53
5.26
5.64
5.65
5.33
4.84
4.33
3.93
3.66
3.48
3.31
3.03
2.59
1.98
1.25
0.50
-0.19
-0.74
-1.13
-1.40
-1.56
-1.58
-1.42
-1.04
-0.45
0.28
1.04
1.76
2.41
2.98
3.47
3.82
3.98
3.87
3.49
2.95
2.35
1.84
1.50
1.38
1.47
1.77
2.23
2.78
3.30
3.65
3.71
3.47
2.99
2.46
2.10
2.08
2.46
3.15
3.89
4.42
4.57
4.40
4.20
4.41
5.40
7.29
9.86
12.52
14.51
15.19
14.20
11.52
7.46
2.45
-3.11
-8.91
-14.84
-20.90
-27.10
-33.42
-39.78
-46.04
-52.02
-57.54
-62.39
-66.32
-69.06
-70.27
-69.90
-68.32
-66.32
-64.85
-64.67
-66.11
-69.11
-73.48
-78.79
-84.94
-91.97
-99.86
-108.23
-116.16
-122.39
-125.62
-124.77
-118.26
-104.74
-83.22
-53.51
-16.60
25.24
68.64
109.63
144.36
170.72
187.98
196.90
199.26
197.58
194.67
193.25
195.29
196.16
191.34
177.31
153.71
123.73
92.31
63.70
40.24
22.14
7.95
-3.47
-13.08
-21.31
-28.28
-34.08
-38.78
-42.40
-44.86
-46.11
-45.37
-41.95
-35.37
-25.83
-14.07
-1.35
10.74
21.20
28.36
31.58
30.88
26.96
20.60
12.54
3.32
-6.72
-17.23
-27.80
-37.65
-46.04
-52.63
-57.53
-61.16
-64.03
-66.51
-68.81
-71.03
-73.07
-74.91
-76.61
-78.38
-80.43
-83.11
-86.24
-90.21
-95.69
-103.20
-112.83
-124.03
-135.72
-146.47
-154.82
-159.65
-160.49
-157.48
-151.36
-143.09
-133.43
-122.39
-108.98
-91.49
-68.02
-37.48
-0.10
42.53
87.83
132.76
174.46
210.51
239.22
259.78
272.49
278.83
281.20
282.21
283.78
286.48
289.45
290.70
287.77
278.42
261.24
236.09
204.21
168.02
130.53
94.71
62.79
35.84
13.85
-3.97
-18.68
-31.31
-42.60
-52.92
-62.31
-70.54
-77.33
-82.58
-86.53
-89.71
-92.68
-95.68
-98.42
-100.23
-100.36
-98.37
-94.33
-88.82
-82.65
-76.59
-71.13
-66.46
-62.52
-59.08
-55.86
-52.50
-48.68
-44.14
-38.76
-32.64
-26.10
-19.60
-13.62
-8.60
-4.76
-2.06
-0.26
1.02
2.11
3.20
4.27
5.16
5.66
5.68
5.29
4.70
4.20
4.00
4.18
4.67
5.32
5.99
6.58
7.05
7.34
7.40
7.13
6.46
5.40
4.12
2.88
1.97
1.60
1.81
2.48
3.40
4.34
5.21
6.01
6.88
7.98
9.36
10.91
12.29
13.02
12.65
11.01
8.33
5.29
2.82
1.75
2.47
4.78
7.91
10.87
12.85
13.60
13.60
13.93
15.93
20.80
29.15
40.86
55.20
71.06
87.33
103.29
118.85
134.80
152.62
173.72
198.30
224.48
248.10
263.62
265.92
252.07
222.47
180.29
129.78
74.29
15.30
-47.42
-114.84
-187.47
-265.19
-346.80
-429.70
-509.93
-581.44
-635.90
-664.51
-660.97
-623.88
-558.54
-474.36
-381.29
-287.78
-198.68
-115.33
-37.39
34.38
97.94
149.18
185.85
209.66
224.20
234.08
244.11
258.22
277.72
302.15
326.50
344.76
351.39
339.88
304.63
244.22
162.59
67.43
-30.88
-125.94
-213.48
-275.75
-295.92
-268.95
-205.98
-126.20
-57.35
-2.18
38.77
64.16
72.60
64.95
41.33
5.05
-37.29
-77.96
-108.53
-125.41
-127.30
-114.76
-92.55
-68.22
-48.01
-33.45
-20.57
-1.09
29.91
72.04
118.61
157.34
175.99
168.72
138.79
95.64
50.10
7.05
-34.68
-79.10
-129.11
-182.44
-230.30
-260.34
-262.17
-231.65
-173.96
-101.00
-27.30
34.21
75.11
92.04
85.66
59.51
19.83
-24.60
-62.97
-84.80
-83.67
-60.32
-22.44
18.52
52.73
75.70
88.91
96.62
101.52
102.41
95.13
76.61
48.79
19.60
0.11
-0.42
21.37
61.68
111.51
160.24
198.17
217.88
215.00
189.43
146.51
96.31
50.72
20.25
11.15
24.05
54.64
95.69
138.72
174.69
194.72
191.22
161.71
112.24
56.99
13.87
-2.40
13.69
55.70
107.42
148.51
162.80
144.24
97.05
31.85
-39.46
-107.94
-167.11
-207.99
-225.74
-223.21
-207.12
-183.39
-156.19
-129.07
-105.25
-86.82
-74.35
-67.33
-63.86
-60.78
-55.24
-46.00
-33.43
-19.19
-5.30
6.24
13.58
15.88
14.45
11.45
8.55
6.44
4.86
2.71
-1.58
-9.76
-22.98
-41.27
-62.33
-85.11
-107.74
-126.65
-136.69
-133.10
-114.10
-82.38
-44.69
-9.45
16.09
29.00
30.93
26.43
19.75
12.87
5.51
-2.93
-11.82
-18.74
-20.54
-14.91
-1.56
17.68
39.90
62.16
82.81
101.06
115.45
123.52
122.38
110.83
90.74
67.04
45.67
31.59
26.35
26.99
27.89
24.16
13.88
-2.29
-23.00
-48.09
-77.00
-106.67
-131.91
-145.55
-139.97
-110.06
-56.87
12.60
80.06
125.94
141.33
130.98
106.89
80.67
59.10
43.53
31.91
21.52
11.79
4.18
0.11
-0.32
1.77
4.62
6.38
5.61
1.55
-4.76
-11.10
-15.35
-16.30
-13.99
-8.79
-1.00
9.50
22.83
38.87
56.27
71.46
79.33
75.36
58.04
29.81
-3.67
-35.72
-60.67
-75.06
-78.08
-70.75
-54.83
-32.14
-4.78
24.65
53.27
77.20
93.43
100.61
99.18
91.01
78.88
65.68
53.91
45.21
40.00
37.83
37.54
37.91
38.17
38.29
38.48
38.54
37.26
32.36
21.51
3.38
-21.38
-50.06
-78.82
-104.16
-124.26
-139.64
-152.72
-166.64
-183.92
-205.35
-229.54
-253.12
-271.82
-281.70
-280.48
-268.10
-246.55
-219.16
-189.72
-161.86
-138.70
-122.59
-114.75
-114.64
-119.69
-125.45
-126.79
-119.33
-100.80
-71.26
-32.54
12.73
61.80
111.66
158.74
198.87
228.18
244.35
247.89
242.07
231.75
221.40
213.53
208.13
203.50
197.62
189.37
178.88
166.98
154.38
141.14
126.80
110.97
93.91
76.66
60.56
46.62
34.93
24.61
14.19
2.37
-11.38
-26.62
-42.15
-56.59
-68.94
-78.82
-86.33
-91.62
-94.38
-93.57
-87.44
-73.90
-51.19
-18.61
22.83
70.04
117.95
160.21
190.42
203.56
197.17
171.63
129.81
76.06
15.41
-46.82
-104.95
-153.02
-185.32
-197.54
-187.97
-158.28
-113.46
-60.88
-8.91
34.45
62.72
71.94
61.56
34.99
-0.68
-36.01
-61.65
-70.95
-61.98
-37.96
-6.04
25.08
47.78
57.54
53.77
39.30
18.95
-2.15
-20.05
-32.64
-39.60
-41.76
-40.42
-36.78
-31.78
-26.14
-20.44
-15.18
-10.59
-6.55
-2.65
1.61
6.33
11.03
14.62
15.70
13.13
6.52
-3.56
-15.77
-28.46
-40.31
-50.71
-59.82
-68.29
-76.74
-85.41
-93.98
-101.70
-107.72
-111.35
-112.18
-110.11
-105.18
-97.53
-87.36
-75.05
-61.19
-46.54
-31.88
-17.75
-4.26
8.94
22.50
37.00
52.58
68.85
84.84
99.33
111.15
119.51
124.08
124.92
122.35
116.77
108.61
98.29
86.19
72.72
58.24
43.11
27.66
12.24
-2.80
-17.05
-30.05
-41.35
-50.60
-57.66
-62.58
-65.50
-66.41
-65.11
-61.20
-54.38
-44.69
-32.71
-19.51
-6.32
5.85
16.52
25.74
33.91
41.46
48.67
55.60
62.11
67.94
72.73
76.09
77.55
76.67
73.21
67.25
59.27
50.13
40.89
32.56
25.84
21.03
18.01
16.49
16.09
16.42
17.14
17.78
17.80
16.60
13.77
9.42
4.33
-0.17
-2.66
-2.19
1.32
7.01
13.30
18.48
21.29
21.27
18.69
14.27
8.76
2.77
-3.30
-9.34
-15.39
-21.34
-26.89
-31.63
-35.23
-37.61
-38.90
-39.39
-39.75
-40.97
-43.68
-47.62
-51.46
-52.93
-49.29
-38.08
-17.97
9.99
42.36
74.46
101.99
121.97
133.11
135.80
131.81
123.81
113.82
102.43
89.01
72.17
50.13
21.31
-14.87
-57.87
-101.23
-135.43
-153.97
-156.98
-149.21
-135.91
-120.42
-104.00
-86.86
-69.16
-52.27
-38.37
-29.06
-24.29
-22.48
-21.49
-19.53
-15.83
-10.46
-4.66
-0.20
1.83
1.67
0.59
0.11
1.19
3.96
8.04
12.47
16.36
19.43
22.38
26.26
31.68
38.27
44.62
48.91
49.30
44.68
35.18
22.04
6.88
-8.86
-24.02
-38.49
-52.38
-65.87
-79.17
-92.51
-105.78
-117.92
-126.26
-126.98
-116.53
-93.62
-60.69
-23.71
9.89
34.16
46.86
49.81
47.15
42.91
39.27
36.42
33.53
30.14
26.71
24.26
23.51
24.24
25.44
26.02
25.19
23.03
20.24
17.69
15.97
15.12
14.67
13.97
12.57
10.41
7.76
5.01
2.42
0.07
-1.99
-3.68
-4.66
-4.43
-2.50
1.54
8.00
16.99
28.12
40.07
50.30
55.67
53.49
42.98
26.09
6.99
-9.45
-19.64
-22.51
-19.52
-13.49
-7.09
-1.82
1.93
4.28
5.15
4.18
1.10
-3.67
-8.78
-12.32
-12.59
-8.77
-1.60
6.72
13.19
15.06
10.79
0.81
-12.73
-26.63
-37.91
-44.81
-47.16
-46.00
-42.70
-38.08
-31.95
-23.43
-11.66
3.30
20.09
36.16
48.56
55.00
54.50
47.75
36.69
23.82
11.50
1.34
-5.99
-10.76
-13.78
-16.14
-18.91
-22.69
-27.82
-34.11
-40.74
-46.33
-49.20
-47.81
-41.33
-30.16
-16.17
-2.40
7.73
11.52
7.88
-2.18
-15.88
-29.65
-40.29
-45.98
-46.73
-43.99
-39.77
-35.61
-31.81
-27.24
-19.87
-7.56
10.90
35.12
62.79
90.05
112.13
124.44
123.72
108.86
81.50
45.73
7.30
-27.62
-53.70
-67.48
-67.79
-55.82
-34.74
-9.02
16.37
36.87
49.24
52.12
46.30
34.39
20.08
7.01
-2.25
-6.78
-7.36
-5.86
-4.33
-4.15
-5.55
-7.66
-9.01
-8.27
-4.84
0.82
7.33
12.75
15.26
13.75
8.17
-0.33
-9.69
-17.50
-21.70
-21.17
-16.07
-7.80
1.42
9.10
13.26
12.92
8.30
0.74
-7.79
-15.27
-20.18
-21.84
-20.42
-16.75
-11.99
-7.31
-3.55
-1.21
-0.33
-0.60
-1.47
-2.25
-2.27
-1.05
1.58
5.43
9.83
13.83
16.46
17.09
15.63
12.70
9.28
6.38
4.58
3.92
4.00
4.28
4.38
4.16
3.73
3.23
2.83
2.67
2.97
4.04
6.11
9.14
12.65
15.75
17.41
16.79
13.65
8.43
2.20
-3.73
-8.17
-10.42
-10.39
-8.63
-6.01
-3.44
-1.58
-0.64
-0.46
-0.66
-0.90
-1.10
-1.36
-1.83
-2.50
-3.09
-3.14
-2.32
-0.65
1.41
3.16
4.05
3.90
2.94
1.61
0.32
-0.74
-1.51
-1.91
-1.74
-0.75
1.14
3.64
6.06
7.54
7.43
5.65
2.74
-0.35
-2.70
-3.80
-3.68
-2.80
-1.67
-0.64
0.27
1.16
1.98
2.42
1.94
0.09
-3.15
-7.23
-11.18
-13.89
-14.63
-13.27
-10.35
-6.86
-3.86
-2.09
-1.69
-2.26
-3.07
-3.40
-2.93
-1.80
-0.51
0.41
0.70
0.44
-0.06
-0.51
-0.86
-1.24
-1.79
-2.50
-3.17
-3.47
-3.22
-2.49
-1.57
-0.72
-0.09
0.44
1.09
2.05
3.26
4.43
5.16
5.13
4.28
2.79
1.03
-0.64
-2.01
-3.00
-3.76
-4.44
-5.23
-6.14
-7.02
-7.57
-7.40
-6.30
-4.41
-2.29
-0.70
-0.28
-1.16
-2.76
-4.02
-3.81
-1.53
2.66
7.82
12.70
16.16
17.60
17.06
15.05
12.34
9.68
7.71
6.90
7.42
9.05
11.15
12.74
12.76
10.51
5.97
-0.09
-6.36
-11.54
-14.83
-16.28
-16.55
-16.48
-16.58
-16.73
-16.31
-14.56
-11.03
-5.84
0.20
5.80
9.43
9.70
5.77
-2.21
-12.88
-23.76
-31.82
-34.39
-30.20
-19.89
-6.00
7.91
18.34
23.03
21.37
14.35
3.86
-8.12
-20.06
-31.03
-40.43
-47.59
-51.54
-51.10
-45.27
-33.82
-17.61
1.27
19.95
35.37
44.93
47.11
41.58
29.32
12.45
-6.09
-22.78
-34.10
-37.19
-30.69
-15.42
5.56
27.45
45.06
54.31
53.53
43.91
28.99
13.33
0.99
-5.66
-6.36
-2.56
3.42
9.38
13.83
16.22
16.68
15.69
13.77
11.37
8.95
7.00
6.04
6.40
8.00
10.25
12.15
12.63
10.97
7.18
2.04
-3.10
-6.83
-8.13
-6.72
-3.10
1.75
6.73
11.01
14.21
16.32
17.66
18.70
20.11
22.57
26.74
32.95
41.00
50.01
58.48
64.76
67.45
66.02
61.01
53.97
47.15
42.91
43.21
49.12
60.65
76.64
95.19
113.96
130.80
144.16
153.47
159.15
162.44
164.99
168.36
173.70
181.67
192.44
205.79
220.87
236.02
248.59
255.37
253.37
240.89
218.15
187.20
151.04
112.51
73.57
35.53
-0.14
-31.35
-55.66
-71.63
-80.18
-85.07
-91.80
-105.37
-128.13
-158.79
-193.45
-227.51
-257.94
-284.34
-308.45
-332.95
-360.30
-392.29
-429.95
-473.18
-519.92
-565.41
-602.43
-623.02
-621.32
-595.94
-550.83
-493.87
-433.96
-378.14
-330.10
-290.29
-257.32
-229.26
-204.29
-180.68
-156.45
-129.29
-96.85
-57.49
-11.02
40.67
93.32
141.33
179.54
205.49
220.70
230.35
241.11
258.19
283.29
314.56
348.64
382.85
416.22
448.27
476.71
496.09
498.73
477.93
431.60
364.07
284.91
205.18
133.64
74.33
26.99
-10.87
-41.87
-68.09
-91.90
-116.88
-147.26
-185.84
-231.50
-278.07
-315.95
-335.61
-331.30
-302.98
-255.71
-197.56
-137.44
-83.92
-44.40
-24.16
-24.61
-41.64
-65.56
-83.49
-83.81
-60.81
-17.12
37.32
89.11
125.88
140.14
130.63
101.60
60.89
17.53
-20.24
-46.28
-57.23
-52.47
-33.72
-4.65
29.62
63.15
90.13
106.00
108.54
98.22
77.76
51.13
22.11
-6.56
-33.38
-57.51
-77.96
-93.00
-100.20
-97.14
-82.30
-55.84
-19.81
22.26
66.16
107.75
143.53
170.90
188.24
195.02
191.77
180.09
162.28
140.97
118.58
97.04
77.74
61.70
49.64
41.88
38.14
37.40
38.14
38.88
38.81
38.13
37.90
39.40
43.43
49.77
57.20
63.98
68.56
70.22
69.20
66.54
63.53
61.12
59.63
58.74
57.79
56.16
53.60
50.29
46.64
43.10
39.97
37.38
35.27
33.36
30.91
26.65
18.90
6.01
-12.90
-37.34
-65.32
-93.87
-119.88
-140.92
-155.61
-163.42
-164.39
-158.82
-147.48
-131.78
-113.91
-96.54
-81.98
-71.46
-64.73
-60.37
-56.48
-51.58
-45.14
-37.54
-29.70
-22.46
-16.27
-11.06
-6.46
-2.04
2.40
6.82
10.97
14.58
17.43
19.52
20.95
21.96
22.73
23.29
23.48
23.07
21.90
20.18
18.59
18.10
19.63
23.54
29.32
35.65
40.83
43.51
43.21
40.47
36.56
32.86
30.31
29.16
29.12
29.70
30.65
31.97
33.88
36.52
39.81
43.40
46.74
49.32
50.64
50.22
47.55
42.06
33.27
21.00
5.66
-11.66
-29.16
-44.62
-55.90
-61.53
-61.18
-55.89
-47.88
-40.02
-35.12
-35.30
-41.61
-53.99
-71.40
-92.16
-114.21
-135.38
-153.59
-167.17
-175.03
-176.86
-173.08
-164.69
-152.96
-139.13
-124.11
-108.43
-92.24
-75.42
-57.74
-38.90
-18.52
3.86
28.66
55.97
85.22
114.83
142.28
164.50
178.79
183.77
180.10
170.49
159.01
149.81
145.77
147.63
153.70
160.48
163.84
160.39
148.55
129.01
104.47
78.48
54.26
33.47
15.87
-0.46
-18.13
-39.38
-65.21
-95.12
-127.34
-159.32
-188.56
-213.03
-231.35
-242.65
-246.34
-241.97
-229.32
-208.72
-181.13
-148.37
-112.70
-76.29
-40.64
-6.39
26.51
58.43
89.66
120.81
152.49
185.39
220.00
256.02
291.88
324.76
351.25
367.90
373.44
367.96
352.90
330.25
301.75
268.58
231.24
189.93
144.10
95.58
46.40
0.02
-38.45
-63.30
-70.05
-58.03
-31.93
-2.77
19.51
25.96
13.61
-13.52
-46.89
-77.30
-98.71
-109.96
-115.84
-119.34
-125.14
-137.09
-157.80
-188.27
-227.28
-271.38
-304.36
-337.58
-370.52
-407.18
-450.76
-499.70
-546.05
-577.70
-583.71
-559.45
-510.16
-443.00
-367.83
-291.81
-218.46
-149.39
-86.41
-31.99
11.90
44.66
71.58
97.76
126.49
157.53
187.33
211.65
228.94
241.59
254.05
272.01
296.09
321.31
338.92
340.60
323.20
291.20
254.96
225.48
210.34
209.47
216.52
222.87
222.25
213.44
199.88
186.35
175.50
166.57
155.84
139.64
116.72
89.10
61.07
36.89
18.67
6.00
-3.65
-13.39
-25.31
-39.79
-55.51
-70.06
-81.09
-87.17
-88.12
-85.06
-79.79
-74.04
-68.86
-64.48
-60.55
-56.66
-52.95
-50.20
-49.74
-52.78
-59.86
-70.52
-83.34
-96.33
-107.46
-114.98
-117.67
-114.77
-105.88
-90.98
-70.57
-45.86
-18.94
7.42
30.33
47.46
57.61
60.97
59.00
53.79
47.55
42.09
38.52
37.25
38.04
40.19
42.70
44.58
45.04
43.70
40.64
36.35
31.51
26.74
22.45
18.81
15.77
13.16
10.75
8.34
5.83
3.30
1.00
-0.71
-1.59
-1.65
-1.16
-0.58
-0.25
-0.30
-0.53
-0.68
-0.58
-0.39
-0.49
-1.32
-3.13
-5.85
-9.06
-12.21
-14.79
-16.45
-17.08
-16.78
-15.78
-14.33
-12.72
-11.17
-9.87
-8.94
-8.40
-8.20
-8.23
-8.36
-8.52
-8.69
-8.94
-9.29
-9.75
-10.21
-10.51
-10.52
-10.13
-9.36
-8.27
-6.99
-5.60
-4.18
-2.81
-1.57
-0.56
0.10
0.33
0.13
-0.42
-1.15
-1.88
-2.48
-2.93
-3.33
-3.80
-4.46
-5.27
-6.14
-6.88
-7.34
-7.49
-7.43
-7.32
-7.34
-7.57
-7.96
-8.38
-8.73
-8.98
-9.21
-9.50
-9.87
-10.17
-10.17
-9.67
-8.63
-7.14
-5.41
-3.63
-1.93
-0.38
0.98
2.02
2.60
2.64
2.19
1.40
0.47
-0.51
-1.58
-2.82
-4.25
-5.73
-7.01
-7.82
-7.98
-7.52
-6.62
-5.52
-4.44
-3.57
-3.03
-2.94
-3.38
-4.40
-5.92
-7.80
-9.79
-11.62
-13.03
-13.76
-13.70
-12.80
-11.18
-9.05
-6.66
-4.24
-1.95
0.12
1.90
3.28
4.15
4.41
4.08
3.27
2.22
1.22
0.47
-0.00
-0.32
-0.67
-1.20
-1.88
-2.51
-2.87
-2.76
-2.22
-1.44
-0.71
-0.29
-0.33
-0.85
-1.80
-3.05
-4.47
-5.89
-7.13
-8.01
-8.38
-8.19
-7.45
-6.29
-4.82
-3.13
-1.28
0.72
2.79
4.82
6.58
7.84
8.42
8.27
7.50
6.35
5.08
3.88
2.85
2.03
1.34
0.74
0.13
-0.52
-1.19
-1.80
-2.27
-2.57
-2.86
-3.38
-4.36
-5.89
-7.90
-10.18
-12.52
-14.79
-16.88
-18.66
-19.82
-19.97
-18.81
-16.25
-12.53
-8.07
-3.35
1.21
5.33
8.78
11.37
12.97
13.59
13.34
12.48
11.26
9.86
8.38
6.86
5.33
3.80
2.20
0.30
-2.20
-5.51
-9.51
-13.73
-17.42
-19.89
-20.76
-20.17
-18.64
-16.86
-15.37
-14.40
-13.86
-13.50
-13.02
-12.20
-10.89
-8.91
-6.05
-2.10
3.02
9.10
15.45
21.06
24.77
25.66
23.45
18.58
12.13
5.37
-0.58
-5.07
-7.94
-9.35
-9.53
-8.67
-6.97
-4.69
-2.27
-0.24
0.93
1.06
0.29
-1.01
-2.41
-3.73
-5.05
-6.67
-8.88
-11.69
-14.75
-17.41
-18.93
-18.74
-16.68
-12.98
-8.18
-2.91
2.27
6.99
11.07
14.44
17.09
18.99
20.06
20.25
19.62
18.37
16.82
15.32
14.08
13.16
12.44
11.72
10.88
9.93
8.98
8.16
7.46
6.71
5.72
4.34
2.62
0.69
-1.35
-3.50
-5.85
-8.45
-11.11
-13.38
-14.72
-14.68
-13.16
-10.42
-6.88
-2.92
1.27
5.70
10.37
15.05
19.30
22.56
24.40
24.77
23.95
22.45
20.79
19.29
17.99
16.79
15.50
14.03
12.40
10.71
9.12
7.77
6.71
5.89
5.21
4.49
3.56
2.32
0.71
-1.26
-3.52
-5.90
-8.18
-9.97
-10.91
-10.66
-9.10
-6.31
-2.59
1.63
5.90
9.79
12.99
15.28
16.55
16.85
16.36
15.33
14.04
12.77
11.67
10.83
10.25
9.82
9.44
8.98
8.39
7.69
7.02
6.48
6.07
5.71
5.17
4.27
2.92
1.13
-0.98
-3.27
-5.57
-7.68
-9.32
-10.23
-10.15
-8.93
-6.65
-3.58
-0.12
3.35
6.57
9.44
11.90
13.89
15.25
15.79
15.37
14.05
12.11
9.98
8.08
6.66
5.73
5.11
4.50
3.71
2.69
1.52
0.36
-0.66
-1.47
-2.08
-2.57
-3.05
-3.64
-4.46
-5.63
-7.17
-8.96
-10.67
-11.82
-11.95
-10.79
-8.42
-5.17
-1.59
1.86
4.88
7.36
9.27
10.59
11.27
11.30
10.77
9.91
8.97
8.14
7.41
6.66
5.76
4.69
3.58
2.66
2.10
1.93
1.97
1.92
1.53
0.68
-0.57
-2.06
-3.67
-5.37
-7.23
-9.33
-11.64
-13.94
-15.85
-16.97
-17.03
-15.95
-13.85
-10.95
-7.51
-3.75
0.16
3.96
7.34
9.96
11.57
12.06
11.57
10.39
8.85
7.27
5.83
4.61
3.62
2.88
2.37
2.08
1.95
1.85
1.61
1.10
0.29
-0.73
-1.80
-2.77
-3.62
-4.42
-5.35
-6.55
-8.08
-9.83
-11.62
-13.20
-14.35
-14.89
-14.69
-13.74
-12.04
-9.72
-6.94
-3.88
-0.73
2.34
5.17
7.61
9.54
10.82
11.40
11.30
10.67
9.72
8.69
7.79
7.10
6.61
6.17
5.63
4.89
3.96
2.93
1.92
0.97
0.06
-0.90
-1.98
-3.16
-4.35
-5.44
-6.36
-7.15
-7.91
-8.76
-9.81
-11.09
-12.53
-13.95
-15.07
-15.60
-15.26
-13.95
-11.80
-9.09
-6.18
-3.34
-0.67
1.84
4.24
6.46
8.33
9.61
10.18
10.09
9.54
8.81
8.12
7.54
7.01
6.47
5.86
5.25
4.73
4.39
4.23
4.16
4.03
3.71
3.13
2.28
1.27
0.22
-0.75
-1.55
-2.17
-2.64
-3.01
-3.40
-3.90
-4.63
-5.68
-7.02
-8.50
-9.81
-10.64
-10.70
-9.86
-8.19
-5.90
-3.25
-0.49
2.18
4.62
6.66
8.16
9.03
9.25
8.98
8.38
7.63
6.88
6.19
5.58
5.07
4.64
4.29
3.99
3.75
3.60
3.54
3.60
3.69
3.70
3.49
2.93
2.02
0.78
-0.72
-2.43
-4.26
-6.11
-7.83
-9.27
-10.43
-11.38
-12.26
-13.16
-13.94
-14.35
-14.07
-12.92
-10.92
-8.26
-5.20
-1.97
1.24
4.24
6.77
8.54
9.40
9.43
8.90
8.19
7.59
7.17
6.80
6.27
5.42
4.30
3.09
2.01
1.26
0.88
0.81
0.91
1.02
1.02
0.87
0.55
0.10
-0.46
-1.13
-1.89
-2.76
-3.69
-4.65
-5.57
-6.47
-7.42
-8.51
-9.77
-11.07
-12.12
-12.58
-12.18
-10.87
-8.88
-6.56
-4.25
-2.12
-0.16
1.72
3.58
5.27
6.49
6.95
6.57
5.50
4.15
2.92
2.06
1.60
1.41
1.32
1.25
1.19
1.18
1.23
1.32
1.41
1.47
1.50
1.49
1.38
1.05
0.36
-0.79
-2.37
-4.21
-6.07
-7.76
-9.22
-10.49
-11.71
-12.94
-14.13
-15.07
-15.48
-15.13
-14.00
-12.26
-10.21
-8.12
-6.14
-4.27
-2.45
-0.66
1.06
2.62
3.89
4.86
5.53
5.95
6.16
6.14
5.86
5.31
4.53
3.65
2.83
2.20
1.77
1.50
1.28
1.06
0.82
0.62
0.48
0.34
0.03
-0.61
-1.62
-2.87
-4.13
-5.16
-5.91
-6.50
-7.12
-7.88
-8.68
-9.27
-9.29
-8.58
-7.13
-5.18
-3.02
-0.89
1.13
3.09
5.00
6.80
8.30
9.29
9.62
9.29
8.44
7.30
6.11
5.05
4.20
3.54
3.08
2.78
2.65
2.66
2.71
2.71
2.56
2.17
1.55
0.76
-0.11
-0.98
-1.77
-2.46
-3.04
-3.62
-4.34
-5.34
-6.65
-8.15
-9.55
-10.44
-10.51
-9.70
-8.17
-6.27
-4.32
-2.52
-0.86
0.74
2.34
3.86
5.11
5.93
6.23
6.07
5.62
5.07
4.55
4.09
3.63
3.11
2.52
1.91
1.40
1.03
0.82
0.69
0.49
0.10
-0.59
-1.55
-2.69
-3.84
-4.88
-5.79
-6.66
-7.69
-8.98
-10.50
-11.96
-12.97
-13.15
-12.32
-10.64
-8.45
-6.12
-3.90
-1.81
0.21
2.15
3.89
5.21
5.92
6.03
5.77
5.43
5.24
5.25
5.37
5.49
5.54
5.54
5.52
5.47
5.29
4.92
4.29
3.45
2.45
1.36
0.17
-1.13
-2.52
-3.95
-5.35
-6.71
-8.11
-9.65
-11.30
-12.90
-14.17
-14.76
-14.43
-13.09
-10.89
-8.05
-4.85
-1.52
1.74
4.69
7.09
8.68
9.34
9.10
8.21
6.98
5.72
4.59
3.57
2.57
1.55
0.53
-0.35
-0.99
-1.34
-1.48
-1.52
-1.55
-1.60
-1.66
-1.74
-1.91
-2.27
-2.93
-3.91
-5.17
-6.63
-8.17
-9.64
-10.84
-11.54
-11.54
-10.76
-9.27
-7.20
-4.81
-2.23
0.36
2.88
5.18
7.16
8.67
9.67
10.14
10.08
9.50
8.39
6.83
5.01
3.28
1.98
1.39
1.54
2.27
3.28
4.26
5.05
5.63
6.09
6.56
7.05
7.48
7.62
7.31
6.41
4.94
3.01
0.82
-1.42
-3.44
-4.95
-5.64
-5.24
-3.68
-1.11
2.09
5.43
8.49
11.00
12.90
14.20
14.91
15.00
14.40
13.16
11.44
9.54
7.75
6.27
5.12
4.24
3.50
2.82
2.18
1.56
0.97
0.36
-0.30
-1.00
-1.74
-2.50
-3.27
-4.08
-4.96
-5.98
-7.17
-8.55
-10.05
-11.47
-12.51
-12.83
-12.18
-10.52
-8.10
-5.28
-2.48
0.03
2.14
3.83
5.12
5.99
6.41
6.39
5.97
5.24
4.30
3.29
2.35
1.60
1.12
0.87
0.73
0.51
0.09
-0.52
-1.16
-1.65
-1.92
-2.08
-2.36
-2.99
-4.03
-5.33
-6.60
-7.62
-8.30
-8.77
-9.18
-9.55
-9.73
-9.39
-8.24
-6.20
-3.50
-0.52
2.33
4.83
6.92
8.70
10.21
11.38
12.02
12.02
11.42
10.43
9.39
8.51
7.89
7.38
6.82
6.03
4.98
3.79
2.60
1.54
0.68
0.00
-0.53
-0.98
-1.38
-1.80
-2.27
-2.88
-3.67
-4.69
-5.91
-7.26
-8.59
-9.68
-10.33
-10.35
-9.64
-8.24
-6.27
-3.94
-1.46
0.97
3.21
5.17
6.83
8.13
9.04
9.55
9.65
9.39
8.85
8.18
7.53
7.03
6.71
6.53
6.33
5.97
5.36
4.52
3.60
2.79
2.22
1.86
1.58
1.12
0.36
-0.66
-1.78
-2.80
-3.62
-4.34
-5.12
-6.07
-7.13
-7.98
-8.22
-7.55
-5.93
-3.68
-1.27
0.88
2.53
3.75
4.74
5.69
6.61
7.36
7.71
7.58
7.03
6.33
5.72
5.35
5.21
5.11
4.90
4.49
3.91
3.25
2.61
2.00
1.42
0.82
0.16
-0.55
-1.33
-2.19
-3.11
-4.06
-5.00
-5.89
-6.77
-7.65
-8.57
-9.47
-10.23
-10.65
-10.52
-9.74
-8.27
-6.26
-3.89
-1.43
0.91
2.96
4.63
5.83
6.52
6.71
6.46
5.92
5.30
4.78
4.46
4.25
3.95
3.36
2.44
1.36
0.41
-0.22
-0.48
-0.53
-0.55
-0.72
-1.02
-1.41
-1.85
-2.37
-3.02
-3.81
-4.66
-5.44
-6.09
-6.70
-7.36
-8.12
-8.84
-9.20
-8.90
-7.81
-6.04
-3.92
-1.80
0.12
1.84
3.50
5.15
6.68
7.86
8.42
8.23
7.42
6.30
5.20
4.40
3.97
3.81
3.75
3.64
3.44
3.17
2.87
2.54
2.20
1.82
1.50
1.38
1.62
2.34
3.46
4.77
5.89
6.50
6.36
5.47
4.03
2.44
1.18
0.68
1.18
2.67
4.86
7.24
9.25
10.43
10.59
9.82
8.53
7.16
6.06
5.29
4.66
3.81
2.45
0.52
-1.77
-4.00
-5.78
-6.91
-7.50
-7.82
-8.16
-8.71
-9.48
-10.34
-11.21
-12.01
-12.71
-13.23
-13.39
-12.97
-11.83
-10.04
-7.94
-6.03
-4.74
-4.29
-4.55
-5.15
-5.63
-5.62
-4.88
-3.44
-1.45
0.86
3.22
5.41
7.23
8.56
9.31
9.47
9.13
8.44
7.58
6.73
5.94
5.19
4.42
3.59
2.75
2.00
1.49
1.29
1.41
1.77
2.26
2.77
3.20
3.43
3.36
2.93
2.16
1.17
0.13
-0.88
-1.84
-2.85
-3.98
-5.17
-6.18
-6.69
-6.42
-5.27
-3.38
-1.11
1.13
3.02
4.38
5.21
5.58
5.60
5.38
5.01
4.63
4.35
4.25
4.30
4.32
4.10
3.45
2.41
1.17
-0.01
-0.91
-1.47
-1.78
-1.98
-2.20
-2.46
-2.75
-3.03
-3.28
-3.52
-3.81
-4.26
-4.99
-6.08
-7.48
-8.97
-10.21
-10.82
-10.58
-9.50
-7.80
-5.78
-3.71
-1.71
0.20
1.97
3.49
4.64
5.26
5.33
5.01
4.55
4.20
4.09
4.19
4.31
4.28
3.94
3.30
2.48
1.65
0.92
0.36
-0.06
-0.39
-0.71
-1.12
-1.70
-2.51
-3.58
-4.88
-6.34
-7.89
-9.42
-10.76
-11.73
-12.11
-11.73
-10.59
-8.84
-6.74
-4.59
-2.58
-0.74
0.98
2.61
4.12
5.39
6.31
6.77
6.79
6.44
5.81
4.91
3.76
2.38
0.81
-0.80
-2.25
-3.40
-4.14
-4.49
-4.54
-4.45
-4.39
-4.53
-4.94
-5.60
-6.43
-7.24
-7.92
-8.43
-8.88
-9.41
-10.12
-10.95
-11.66
-11.95
-11.58
-10.45
-8.67
-6.49
-4.17
-1.88
0.30
2.37
4.31
6.07
7.50
8.44
8.76
8.45
7.66
6.60
5.50
4.50
3.63
2.87
2.15
1.48
0.91
0.44
0.07
-0.26
-0.67
-1.22
-1.94
-2.74
-3.50
-4.10
-4.48
-4.69
-4.83
-5.02
-5.26
-5.46
-5.44
-5.04
-4.19
-2.94
-1.42
0.25
1.99
3.77
5.58
7.31
8.83
9.95
10.52
10.45
9.77
8.61
7.19
5.73
4.43
3.34
2.42
1.49
0.44
-0.73
-1.89
-2.81
-3.30
-3.30
-2.92
-2.37
-1.87
-1.55
-1.45
-1.61
-2.10
-2.99
-4.31
-5.94
-7.56
-8.74
-9.08
-8.39
-6.79
-4.55
-2.05
0.45
2.77
4.85
6.58
7.83
8.49
8.54
8.13
7.55
7.05
6.82
6.85
7.00
7.09
6.99
6.68
6.26
5.83
5.43
5.06
4.68
4.26
3.79
3.30
2.78
2.20
1.46
0.48
-0.79
-2.31
-3.96
-5.50
-6.70
-7.36
-7.37
-6.76
-5.63
-4.13
-2.40
-0.57
1.23
2.86
4.15
4.97
5.27
5.12
4.67
4.11
3.59
3.18
2.85
2.52
2.14
1.65
1.01
0.22
-0.73
-1.81
-2.91
-3.89
-4.62
-5.03
-5.13
-5.03
-4.91
-4.97
-5.42
-6.34
-7.69
-9.28
-10.74
-11.71
-11.87
-11.10
-9.51
-7.37
-4.99
-2.63
-0.39
1.72
3.73
5.61
7.24
8.44
9.06
9.02
8.35
7.21
5.79
4.27
2.77
1.37
0.12
-0.91
-1.71
-2.25
-2.59
-2.88
-3.27
-3.87
-4.70
-5.63
-6.48
-7.10
-7.43
-7.57
-7.73
-8.06
-8.66
-9.46
-10.23
-10.72
-10.64
-9.82
-8.26
-6.10
-3.62
-1.12
1.18
3.15
4.84
6.33
7.70
8.91
9.83
10.31
10.23
9.64
8.68
7.58
6.49
5.45
4.39
3.23
1.96
0.68
-0.44
-1.23
-1.61
-1.71
-1.72
-1.86
-2.26
-2.86
-3.53
-4.17
-4.75
-5.35
-6.05
-6.78
-7.31
-7.32
-6.55
-5.00
-2.90
-0.68
1.30
2.81
3.93
4.84
5.72
6.62
7.43
7.93
7.94
7.44
6.56
5.53
4.57
3.80
3.18
2.62
2.03
1.42
0.89
0.58
0.57
0.82
1.21
1.56
1.66
1.41
0.68
-0.56
-2.31
-4.44
-6.73
-8.84
-10.40
-11.10
-10.72
-9.29
-6.99
-4.18
-1.30
1.26
3.22
4.55
5.45
6.25
7.28
8.68
10.40
12.20
13.83
15.09
15.94
16.38
16.44
16.11
15.41
14.47
13.52
12.90
12.86
13.40
14.27
15.06
15.31
14.77
13.55
12.03
10.71
9.93
9.80
10.13
10.69
11.29
11.97
13.07
15.01
18.12
22.42
27.58
33.09
38.49
43.39
47.73
51.74
55.82
60.27
65.10
70.05
74.73
78.83
81.70
82.78
81.60
77.85
71.46
62.73
52.59
42.71
35.40
31.69
31.81
34.94
39.75
44.97
49.60
52.99
54.46
52.75
43.68
23.02
-11.36
-57.15
-107.29
-152.10
-183.08
-196.25
-192.86
-180.83
-168.45
-160.86
-158.69
-159.95
-163.23
-169.58
-181.89
-189.74
-183.76
-155.53
-103.02
-31.82
48.13
127.05
197.82
253.74
297.55
328.73
346.41
350.17
340.96
320.48
290.12
251.40
205.34
153.70
94.11
25.78
-49.54
-127.22
-201.09
-265.30
-315.22
-348.71
-365.17
-369.97
-368.51
-364.85
-360.98
-357.88
-357.03
-360.31
-370.95
-372.92
-358.34
-326.33
-283.63
-239.06
-198.51
-163.98
-134.34
-108.86
-87.25
-74.04
-72.83
-85.23
-107.76
-133.10
-156.25
-165.96
-154.26
-118.65
-66.31
-7.32
48.27
95.89
135.63
170.78
206.28
244.43
284.81
322.19
353.59
373.94
384.37
388.85
391.96
398.33
410.43
429.67
454.75
487.12
518.02
540.12
545.59
527.62
484.29
418.79
350.88
285.41
225.50
172.65
128.19
91.42
57.38
22.78
-15.38
-56.21
-98.34
-137.68
-171.32
-196.96
-212.97
-219.16
-215.52
-202.67
-182.30
-158.99
-135.95
-115.58
-103.09
-95.57
-89.10
-79.44
-63.08
-38.03
-5.49
33.14
75.65
120.02
165.16
209.36
250.97
287.95
320.38
345.20
359.40
360.16
346.18
318.54
279.52
232.78
182.69
132.99
85.81
42.34
1.47
-38.35
-78.14
-118.67
-160.02
-201.66
-243.79
-287.18
-332.43
-381.99
-436.58
-494.27
-550.63
-599.75
-635.64
-655.48
-659.25
-649.24
-633.04
-617.82
-609.41
-611.65
-626.98
-655.94
-698.95
-752.74
-809.61
-863.77
-907.75
-935.10
-941.46
-925.32
-886.65
-829.16
-755.85
-642.30
-480.98
-281.61
-70.85
120.48
265.63
370.42
446.31
503.66
550.54
582.36
595.97
591.58
573.50
548.48
523.95
502.49
484.47
469.07
451.45
428.82
400.84
369.98
340.18
315.53
296.23
280.89
267.53
251.84
231.25
205.02
174.35
141.69
109.89
79.60
50.74
23.12
-4.53
-32.48
-60.34
-87.17
-111.76
-132.97
-150.84
-165.72
-177.84
-187.44
-194.05
-196.72
-194.35
-185.82
-170.46
-148.53
-121.04
-89.60
-56.19
-22.83
8.50
36.04
58.58
75.44
86.43
91.85
92.32
88.67
81.83
72.72
62.10
50.67
38.97
27.41
16.38
6.18
-2.99
-11.02
-17.87
-23.53
-28.05
-31.56
-34.20
-35.98
-37.02
-37.40
-37.33
-37.01
-36.58
-36.11
-35.42
-34.10
-31.51
-26.99
-19.94
-9.98
2.89
18.37
35.85
54.64
73.99
93.20
111.50
128.00
141.66
151.43
156.41
156.24
151.39
143.13
133.41
124.20
117.10
112.89
111.53
112.54
115.47
120.37
127.85
138.73
153.50
171.97
193.39
216.79
241.37
266.47
291.33
314.42
333.27
345.02
347.41
339.65
322.86
299.65
273.16
246.53
222.33
202.66
189.21
183.16
184.64
191.96
201.09
206.04
201.02
182.39
150.85
111.98
74.54
47.09
34.22
34.65
42.13
50.37
55.26
56.74
57.87
62.29
71.74
85.18
99.71
112.58
125.95
143.58
168.79
201.93
239.40
274.76
301.58
315.96
317.83
315.54
318.61
334.32
364.65
405.91
450.91
492.53
526.28
550.88
573.81
602.71
642.59
693.64
751.69
810.86
866.63
917.22
922.48
855.10
702.74
476.07
206.23
-68.77
-318.74
-527.88
-693.09
-818.88
-905.97
-955.63
-970.44
-956.00
-921.34
-877.00
-832.19
-792.91
-761.76
-733.87
-703.67
-667.20
-623.92
-576.67
-529.88
-487.46
-451.51
-422.53
-396.97
-371.34
-343.36
-312.80
-281.34
-251.41
-225.00
-203.13
-185.97
-171.63
-158.15
-144.07
-128.87
-113.09
-97.78
-84.01
-72.46
-63.37
-56.04
-49.56
-43.07
-36.13
-28.75
-21.25
-13.96
-7.07
-0.54
5.70
11.71
17.36
22.45
26.26
28.21
28.08
26.06
22.65
18.47
13.94
9.30
4.58
-0.30
-5.32
-10.31
-15.03
-19.15
-22.35
-24.43
-25.28
-24.95
-23.53
-21.24
-18.40
-15.38
-12.56
-10.22
-8.52
-7.39
-6.62
-5.90
-5.03
-4.06
-3.13
-2.47
-2.22
-2.49
-3.31
-4.66
-6.49
-8.57
-10.62
-12.30
-13.30
-13.49
-12.98
-11.97
-10.82
-9.86
-9.32
-9.36
-10.00
-11.05
-12.21
-13.13
-13.51
-13.22
-12.30
-10.89
-9.13
-7.24
-5.32
-3.36
-1.29
0.88
3.07
5.11
6.83
8.08
8.80
9.00
8.69
7.94
6.83
5.46
4.00
2.58
1.29
0.13
-0.88
-1.83
-2.68
-3.39
-3.88
-4.17
-4.32
-4.41
-4.53
-4.69
-4.89
-5.09
-5.26
-5.43
-5.63
-5.93
-6.32
-6.77
-7.06
-6.88
-5.80
-3.47
0.21
5.03
10.36
15.40
19.37
21.75
22.61
22.56
22.57
23.41
25.37
28.01
30.38
31.53
30.87
28.65
25.96
24.38
25.12
28.51
33.91
40.11
45.81
49.85
51.61
51.33
50.19
49.82
51.97
57.93
68.02
80.59
91.77
96.37
90.05
71.36
42.43
8.38
-24.05
-48.28
-59.95
-58.32
-46.41
-30.12
-16.57
-12.79
-24.11
-52.56
-94.35
-139.35
-175.46
-195.13
-197.31
-183.73
-155.45
-113.24
-60.45
-4.85
42.20
69.68
72.23
53.02
22.54
-7.09
-27.80
-37.98
-40.67
-39.95
-38.30
-35.56
-30.36
-21.86
-11.21
-1.32
4.52
4.06
-2.46
-12.71
-22.58
-27.06
-21.85
-5.53
19.45
46.32
67.52
78.00
77.17
68.58
57.60
48.55
42.73
38.61
33.84
27.35
20.32
15.21
14.10
17.30
23.17
28.81
31.46
29.84
24.52
17.58
11.38
7.60
6.75
8.30
11.06
13.65
14.67
13.02
7.82
-0.93
-12.15
-23.68
-32.97
-38.06
-38.31
-34.68
-29.12
-23.59
-19.22
-16.06
-13.50
-10.91
-8.08
-5.30
-3.07
-1.80
-1.52
-1.96
-2.59
-3.00
-3.01
-2.70
-2.33
-2.23
-2.58
-3.30
-4.04
-4.40
-4.16
-3.36
-2.28
-1.23
-0.32
0.49
1.34
2.15
2.50
1.72
-0.72
-4.82
-9.79
-14.33
-17.14
-17.43
-15.24
-11.26
-6.42
-1.81
1.76
3.90
4.63
4.12
2.63
0.48
-1.87
-3.75
-4.50
-3.62
-0.98
3.01
7.53
11.62
14.52
15.84
15.68
14.46
12.82
11.40
10.69
10.82
11.65
12.75
13.66
13.96
13.43
12.16
10.45
8.72
7.24
6.16
5.53
5.33
5.52
6.00
6.59
6.99
6.70
5.20
2.42
-0.93
-3.43
-3.41
0.40
8.39
19.91
33.01
45.22
54.33
59.30
60.46
59.29
57.92
58.54
62.89
70.86
80.66
89.17
93.00
89.55
77.78
58.55
34.68
10.30
-11.38
-28.87
-42.88
-55.72
-70.47
-90.20
-117.15
-151.87
-186.90
-212.26
-219.51
-207.10
-180.44
-147.30
-113.70
-82.65
-54.86
-29.93
-8.46
8.09
18.28
22.03
21.10
18.29
16.36
17.00
20.57
25.56
29.68
30.95
28.97
25.01
21.09
18.95
19.35
21.99
25.41
27.90
28.42
27.30
25.97
25.99
28.04
31.29
34.27
35.25
33.40
28.94
23.18
17.39
12.05
6.94
1.62
-3.23
-5.54
-3.44
3.30
13.02
23.57
33.65
44.13
56.55
72.24
90.50
107.52
117.01
114.09
98.56
75.66
53.40
36.81
26.97
21.55
17.24
11.27
3.09
-5.58
-12.44
-17.04
-23.90
-38.85
-66.48
-103.56
-145.65
-187.57
-225.13
-256.04
-266.61
-250.98
-213.83
-167.02
-120.94
-80.44
-45.49
-14.31
14.38
40.41
60.49
72.00
75.04
72.83
69.30
67.26
68.09
70.92
73.37
71.04
60.55
40.81
13.05
-19.03
-51.59
-79.71
-97.63
-100.07
-85.63
-57.24
-21.58
13.17
40.07
55.63
60.88
59.84
56.87
54.02
51.18
47.40
42.37
37.02
32.73
30.68
31.10
33.20
35.45
36.41
35.50
33.11
30.24
27.81
26.47
26.48
27.63
29.42
31.20
32.37
32.54
31.61
29.75
27.33
24.98
23.33
23.02
24.67
28.94
36.46
47.19
59.58
70.18
74.58
69.05
52.68
28.15
1.20
-21.55
-35.26
-38.57
-33.79
-24.95
-15.89
-8.62
-3.45
0.28
3.41
6.35
9.00
10.81
11.49
10.92
9.28
6.54
2.88
-0.96
-3.83
-4.65
-3.55
-1.27
1.00
2.20
1.13
-2.18
-6.05
-8.10
-6.30
-1.08
5.73
11.36
13.11
7.35
-8.68
-35.84
-72.82
-111.40
-143.21
-159.72
-155.23
-130.20
-94.49
-62.97
-48.98
-58.46
-88.25
-129.46
-171.48
-206.86
-220.95
-207.74
-172.07
-125.66
-77.71
-31.27
12.88
53.47
87.94
113.78
128.42
132.02
127.48
119.80
113.33
109.45
107.34
104.47
98.72
87.71
70.91
49.32
26.13
4.64
-13.41
-27.89
-39.61
-49.43
-58.78
-62.51
-59.81
-51.02
-37.29
-20.42
-2.53
14.55
29.56
41.47
50.01
54.74
56.49
56.53
55.96
55.41
55.16
55.34
55.94
56.92
57.69
58.17
58.64
59.54
61.15
63.57
66.80
70.66
74.79
78.22
80.26
80.21
77.57
72.03
63.48
52.06
38.19
22.52
6.34
-9.53
-24.27
-37.10
-47.51
-55.27
-60.34
-62.93
-63.34
-62.03
-59.63
-56.70
-53.70
-51.00
-48.70
-46.79
-45.07
-43.26
-41.12
-38.74
-36.36
-34.33
-32.95
-32.31
-32.28
-32.51
-32.49
-31.94
-30.89
-29.72
-28.99
-29.22
-30.53
-32.72
-35.19
-37.17
-38.37
-38.79
-38.76
-39.02
-40.34
-42.77
-46.60
-52.03
-58.81
-65.64
-70.29
-70.24
-63.83
-51.19
-34.25
-15.95
1.19
15.86
27.86
37.36
43.99
46.85
45.19
39.44
31.18
22.94
16.81
13.60
12.85
13.66
15.58
18.42
21.29
22.86
21.77
17.33
10.85
5.13
2.96
5.57
11.03
15.45
15.09
8.32
-3.64
-17.43
-29.64
-38.37
-43.43
-45.68
-46.04
-44.26
-39.78
-32.51
-23.01
-12.56
-3.23
3.21
5.53
3.55
-1.71
-8.77
-16.03
-22.13
-26.17
-27.67
-26.43
-22.28
-15.15
-4.92
8.15
23.35
39.55
55.29
69.06
79.56
85.97
88.03
86.18
81.07
73.56
64.36
54.01
42.92
31.46
19.77
7.88
-4.30
-16.82
-29.73
-43.08
-57.02
-71.62
-86.81
-102.37
-118.07
-133.66
-148.55
-162.33
-174.64
-185.26
-194.14
-201.34
-207.02
-211.46
-215.02
-217.51
-218.76
-218.67
-217.10
-213.79
-208.40
-200.28
-188.26
-174.41
-159.53
-144.13
-128.52
-112.79
-96.89
-80.79
-64.52
-48.31
-32.58
-17.40
-3.12
9.80
20.83
29.47
35.42
38.54
38.85
36.46
31.98
26.04
19.14
11.75
4.18
-3.31
-10.50
-17.29
-23.59
-29.07
-33.48
-36.62
-38.40
-38.85
-38.09
-36.40
-34.18
-31.94
-30.11
-29.17
-29.55
-31.58
-35.45
-41.21
-48.71
-57.62
-67.43
-77.49
-87.13
-95.70
-102.73
-107.88
-110.98
-111.97
-110.87
-107.66
-102.39
-95.13
-86.05
-75.53
-64.10
-52.36
-40.85
-29.91
-19.53
-9.46
0.75
11.50
22.99
35.16
47.81
60.73
73.89
87.55
102.19
118.34
136.26
155.83
176.51
197.61
218.55
239.01
259.06
279.06
299.60
321.56
346.08
374.11
405.68
438.92
469.89
493.41
504.69
501.05
482.82
452.94
415.61
375.05
334.81
297.61
265.64
240.40
222.35
210.48
202.31
194.65
184.71
171.05
153.70
133.93
113.61
94.68
78.82
67.05
59.41
54.96
52.13
49.36
45.73
41.38
37.13
33.89
31.92
30.60
28.69
25.01
19.23
12.28
6.24
3.62
6.35
14.84
27.66
41.91
54.39
62.61
65.39
63.09
57.41
51.08
47.30
48.63
55.71
66.59
76.91
81.51
76.80
61.87
38.43
9.06
-24.25
-60.24
-97.33
-132.50
-161.63
-181.13
-189.96
-189.43
-181.61
-167.22
-145.22
-114.81
-78.86
-45.57
-26.09
-29.19
-55.75
-97.31
-139.87
-170.38
-182.35
-177.34
-161.63
-141.22
-118.29
-90.96
-56.61
-15.94
25.53
58.93
76.57
76.38
63.31
46.78
35.37
31.87
31.95
27.32
10.91
-18.36
-54.48
-87.56
-109.18
-116.24
-111.56
-101.39
-91.32
-83.85
-78.19
-71.93
-63.47
-53.16
-43.01
-35.16
-30.63
-28.78
-27.93
-26.29
-22.79
-17.50
-11.16
-4.82
0.65
4.71
7.08
7.74
7.04
5.64
4.37
4.05
5.22
8.00
12.07
16.81
21.46
25.34
27.93
29.04
28.78
27.39
25.10
21.96
17.82
12.64
6.75
1.05
-3.20
-4.93
-3.85
-0.82
2.25
3.17
0.66
-4.98
-11.83
-17.10
-18.50
-15.35
-8.59
0.06
9.23
18.61
28.65
39.64
50.67
59.62
64.23
63.61
59.06
53.44
49.58
48.57
49.24
49.13
46.22
40.39
33.61
28.89
28.68
33.59
42.14
51.42
58.24
60.27
56.58
47.43
33.43
14.66
-9.88
-42.02
-83.73
-135.63
-196.11
-261.22
-325.68
-384.28
-432.84
-468.30
-487.99
-489.09
-468.96
-426.43
-363.20
-284.47
-197.62
-110.08
-27.00
49.62
119.80
183.26
237.28
276.40
294.70
289.26
263.41
227.12
194.67
179.74
189.90
223.14
268.04
308.30
329.17
323.04
291.49
243.16
188.85
136.69
89.85
47.74
8.67
-27.71
-60.24
-87.89
-111.61
-135.01
-162.36
-195.50
-231.44
-262.34
-278.14
-270.82
-238.51
-186.49
-125.33
-67.04
-20.90
8.66
22.52
24.93
20.78
14.15
7.78
3.70
3.53
8.29
18.01
31.57
47.80
66.59
89.27
116.95
148.35
177.73
195.68
192.39
162.61
109.49
45.12
-13.79
-53.44
-69.04
-66.14
-56.19
-49.51
-50.18
-55.42
-58.68
-55.30
-47.07
-41.32
-46.02
-64.58
-91.89
-117.15
-129.29
-120.15
-87.03
-33.71
32.17
101.58
165.60
217.84
252.50
264.09
251.86
220.22
174.81
123.00
72.18
28.90
0.32
-9.94
-3.91
16.34
48.94
88.11
129.16
169.26
207.30
244.57
278.12
298.53
298.77
277.15
232.57
171.06
103.50
19.91
-77.79
-153.31
-194.75
-209.21
-198.51
-167.44
-117.51
-50.71
28.17
112.23
173.41
183.89
134.28
62.91
-7.75
-63.43
-105.45
-133.21
-146.66
-149.70
-149.46
-150.23
-153.06
-162.05
-176.12
-190.83
-199.11
-195.09
-178.64
-155.34
-131.80
-112.90
-103.47
-100.87
-97.68
-83.63
-51.65
-2.47
57.00
118.20
174.23
219.56
252.57
271.04
271.96
250.35
201.30
125.47
32.01
-63.54
-143.15
-186.99
-193.30
-173.43
-139.23
-103.94
-77.06
-62.81
-61.66
-70.76
-86.38
-106.52
-129.59
-154.54
-180.85
-206.86
-230.07
-248.86
-260.08
-260.58
-247.90
-219.25
-172.15
-106.34
-24.69
71.93
168.23
241.92
274.34
261.67
215.20
152.91
90.24
35.33
-10.03
-52.53
-91.56
-122.16
-138.26
-136.85
-120.64
-97.16
-74.98
-60.07
-55.60
-55.04
-54.21
-50.60
-43.33
-31.95
-15.71
6.05
32.73
61.50
90.16
117.59
144.86
173.22
201.01
222.61
231.09
223.09
201.96
177.62
160.36
154.72
156.29
154.52
139.45
108.18
66.29
23.96
-10.07
-33.80
-52.52
-75.01
-108.59
-154.98
-209.10
-261.15
-300.21
-317.98
-312.08
-287.69
-255.96
-230.26
-221.62
-234.19
-263.35
-296.91
-319.21
-317.56
-287.68
-233.96
-166.27
-95.53
-29.52
28.31
77.85
120.67
156.93
184.12
200.38
206.16
204.45
198.71
190.17
176.85
155.86
123.91
77.45
15.72
-58.73
-140.92
-225.08
-305.84
-379.46
-442.19
-473.44
-457.80
-391.96
-289.18
-171.76
-58.96
40.15
119.06
187.46
251.82
310.20
355.66
379.59
376.02
339.38
270.32
174.33
63.92
-46.23
-143.52
-218.92
-268.24
-290.97
-289.79
-269.17
-235.43
-192.04
-140.31
-79.91
-9.42
72.12
164.12
263.05
362.77
446.55
495.70
499.34
461.65
398.16
325.28
253.70
187.89
129.11
77.29
34.06
1.24
-21.04
-35.33
-46.43
-58.93
-75.58
-96.73
-122.01
-147.27
-167.03
-176.58
-173.46
-158.05
-132.36
-98.71
-57.35
-11.23
36.64
82.11
119.06
140.39
140.73
119.78
83.32
41.43
4.12
-21.64
-34.00
-35.68
-31.35
-25.01
-18.55
-12.29
-6.16
-0.94
2.30
3.23
2.60
2.42
4.99
12.01
23.92
39.69
57.03
72.95
85.56
93.10
94.67
89.92
78.67
60.89
36.84
7.25
-26.70
-62.62
-97.81
-129.44
-154.96
-172.31
-180.21
-178.29
-164.25
-140.44
-109.41
-74.38
-38.89
-6.31
21.06
42.10
57.02
67.42
74.50
79.54
82.55
82.59
78.45
69.43
55.40
36.73
14.33
-10.25
-33.25
-49.77
-55.50
-48.65
-31.03
-7.70
14.59
30.38
36.97
35.64
29.32
20.43
9.23
-5.48
-24.33
-46.26
-67.61
-84.20
-91.10
-85.62
-68.87
-45.39
-22.18
-5.97
-1.15
-7.75
-21.74
-35.91
-42.74
-36.86
-16.31
16.89
57.29
97.21
129.19
145.46
143.22
123.92
91.82
52.50
11.27
-27.87
-62.85
-92.26
-114.35
-127.21
-129.82
-122.24
-105.37
-80.47
-48.51
-12.32
25.84
63.81
98.64
125.63
139.14
134.87
112.37
75.59
32.30
-8.19
-38.92
-57.38
-65.25
-66.41
-64.43
-60.82
-56.03
-49.97
-42.63
-34.75
-27.59
-21.93
-17.62
-13.16
-5.38
9.20
32.44
64.07
100.45
134.91
159.73
168.86
158.37
132.33
97.04
58.90
22.65
-9.66
-37.55
-60.68
-78.03
-88.11
-89.13
-81.34
-66.74
-48.15
-28.85
-11.15
4.11
17.14
28.77
40.24
51.50
60.56
66.29
67.10
61.97
51.04
35.50
17.22
-1.25
-17.86
-31.17
-40.35
-45.74
-48.14
-48.49
-47.12
-44.08
-39.05
-32.09
-23.72
-14.95
-7.53
-3.17
-2.69
-5.74
-10.70
-15.05
-16.66
-14.04
-6.55
5.45
21.01
38.25
54.02
63.14
61.23
46.13
19.54
-12.72
-43.03
-64.88
-75.28
-75.11
-67.83
-56.72
-43.36
-27.99
-10.32
9.02
28.11
44.63
57.41
66.31
72.19
75.98
77.60
75.64
68.01
52.83
28.85
-2.62
-38.96
-75.72
-106.86
-126.02
-128.42
-113.04
-83.72
-48.06
-15.06
8.20
19.12
19.59
13.91
6.03
-2.31
-11.47
-22.25
-34.38
-45.97
-54.10
-56.15
-51.32
-40.88
-27.46
-14.02
-2.45
6.89
14.82
22.79
31.81
41.73
51.22
58.35
61.44
59.87
54.47
47.18
40.34
35.84
34.77
37.29
42.79
49.74
55.75
57.89
53.36
40.75
21.02
-2.11
-23.25
-37.28
-41.44
-36.45
-26.03
-15.08
-7.57
-5.27
-7.70
-12.98
-19.22
-25.27
-30.77
-35.78
-40.09
-42.98
-43.45
-40.97
-36.13
-30.41
-25.64
-23.05
-22.77
-23.78
-24.54
-23.80
-20.99
-16.26
-10.20
-3.01
5.55
15.58
26.39
36.35
43.64
47.25
47.65
46.49
45.65
45.93
46.60
45.91
42.15
34.64
24.23
12.91
3.13
-3.04
-4.41
-0.47
8.75
23.11
42.01
63.83
85.37
102.11
109.53
104.76
88.07
63.19
36.18
13.26
-1.26
-6.21
-3.13
4.83
14.39
22.96
28.83
31.30
30.45
27.05
22.19
16.90
11.76
6.86
1.84
-3.97
-11.27
-20.64
-32.31
-45.83
-59.92
-72.49
-81.06
-83.53
-79.13
-69.01
-56.09
-44.08
-35.93
-32.39
-31.65
-30.47
-26.30
-19.22
-12.06
-8.76
-11.73
-19.97
-29.15
-33.94
-30.84
-19.96
-4.84
9.65
19.79
24.60
25.32
23.74
20.28
13.84
3.04
-11.84
-27.62
-39.13
-41.86
-34.98
-22.85
-13.60
-14.29
-26.42
-43.79
-55.38
-51.88
-31.59
-2.01
24.18
36.17
30.49
11.84
-10.68
-28.91
-39.67
-44.75
-47.70
-50.39
-51.75
-49.57
-43.47
-36.63
-34.27
-40.41
-55.04
-73.87
-90.97
-101.80
-105.38
-103.81
-99.97
-95.19
-88.94
-80.02
-68.85
-58.41
-52.46
-52.54
-55.91
-56.35
-47.59
-27.25
1.43
30.89
52.96
62.77
60.78
52.09
43.83
41.68
47.47
58.85
70.70
77.58
76.04
66.02
50.48
33.98
20.66
12.64
9.91
11.23
15.22
21.11
28.79
38.37
49.70
62.23
74.86
86.20
94.72
99.19
99.16
95.42
89.68
83.95
79.67
76.95
74.62
70.94
64.51
55.24
44.33
33.54
24.20
16.62
10.24
4.04
-2.84
-10.75
-19.34
-27.72
-34.63
-38.90
-39.83
-37.60
-33.23
-28.12
-23.33
-18.98
-14.26
-8.10
-0.04
9.34
18.58
26.24
31.78
35.79
39.29
42.77
45.50
45.93
42.70
35.60
25.78
15.14
5.10
-3.85
-11.75
-18.35
-22.52
-22.63
-17.59
-7.96
3.87
14.62
21.73
24.80
25.86
28.29
35.05
47.08
63.00
79.82
94.20
103.68
107.36
105.91
101.14
95.42
90.85
88.70
88.90
90.05
89.79
85.85
77.06
64.25
50.23
38.72
32.95
34.23
41.45
51.38
59.79
62.64
57.05
42.12
19.36
-7.32
-32.65
-51.74
-62.30
-65.73
-66.83
-71.72
-85.30
-108.96
-139.80
-171.73
-197.77
-212.37
-213.27
-202.06
-183.13
-161.53
-140.66
-120.73
-99.23
-73.42
-42.60
-9.40
21.34
45.41
62.01
74.61
89.21
110.86
140.01
172.77
202.54
222.68
228.57
218.92
195.50
162.14
123.31
81.15
36.77
-9.45
-57.17
-105.49
-152.23
-194.13
-227.63
-250.61
-266.04
-278.55
-292.32
-309.07
-328.01
-346.91
-363.39
-376.16
-385.65
-396.86
-413.46
-435.14
-456.94
-471.39
-471.55
-453.36
-416.59
-344.93
-237.58
-108.42
19.38
125.85
202.86
253.02
283.70
302.04
312.59
314.25
306.59
291.48
273.06
255.64
241.82
231.62
223.15
214.54
200.98
179.89
152.01
121.02
91.62
67.65
51.30
43.42
43.79
50.01
59.35
69.16
77.32
82.32
83.30
80.54
75.76
69.42
62.91
57.76
54.38
51.87
48.71
43.82
37.40
30.84
25.52
21.79
18.69
14.49
8.21
0.43
-6.84
-11.36
-12.05
-9.64
-6.01
-3.12
-1.92
-1.95
-1.76
-0.14
3.10
6.95
9.97
11.35
11.27
10.89
11.68
15.06
20.78
27.57
33.54
37.07
37.51
35.19
30.84
25.31
19.22
13.20
8.65
7.60
11.71
21.31
34.33
46.40
52.65
49.86
38.09
21.00
4.29
-6.88
-9.60
-4.18
6.21
16.90
23.64
23.78
16.46
2.60
-16.00
-36.86
-57.27
-75.09
-89.04
-98.52
-103.48
-105.13
-105.47
-106.01
-106.25
-103.25
-92.46
-69.62
-33.21
14.03
64.45
108.42
138.72
154.31
159.88
162.48
167.63
176.33
184.96
185.87
171.08
135.48
78.97
5.36
-80.24
-173.06
-268.78
-353.26
-408.31
-420.52
-390.00
-328.99
-253.19
-175.21
-102.01
-35.52
24.93
77.90
123.39
159.55
184.97
200.92
210.80
217.68
221.81
220.13
207.38
175.94
125.33
62.03
-2.53
-56.63
-92.26
-106.68
-100.64
-76.11
-35.19
17.79
73.16
116.81
133.83
114.06
55.66
-33.98
-140.81
-243.49
-316.14
-342.53
-325.43
-281.78
-228.28
-173.60
-119.52
-65.15
-10.86
39.85
81.27
109.73
125.30
130.89
130.48
127.80
125.80
126.90
132.77
139.76
147.20
153.54
156.56
154.13
145.64
132.05
115.07
95.69
73.14
46.54
15.99
-15.96
-45.43
-68.08
-80.85
-83.54
-79.27
-73.66
-72.61
-80.17
-94.33
-111.40
-124.84
-128.61
-120.44
-102.93
-82.05
-63.51
-50.33
-42.11
-36.32
-30.32
-23.49
-17.39
-14.37
-16.05
-22.35
-31.34
-39.69
-43.40
-38.73
-23.95
-0.56
26.85
52.07
69.50
76.57
74.33
66.64
58.12
51.90
48.69
47.35
46.37
44.93
43.45
42.69
43.12
44.47
46.00
46.98
47.09
46.99
46.82
46.88
46.98
46.52
44.60
40.52
33.91
24.79
13.75
1.71
-9.89
-19.55
-25.94
-28.38
-26.99
-22.74
-17.21
-11.93
-8.03
-5.92
-5.63
-6.76
-9.00
-12.01
-15.54
-19.45
-23.40
-27.03
-29.86
-31.49
-31.69
-30.49
-28.22
-25.42
-22.72
-20.45
-18.78
-17.62
-16.92
-16.76
-17.40
-19.29
-22.79
-27.88
-33.95
-40.02
-45.09
-48.43
-50.04
-50.56
-50.41
-50.30
-50.54
-50.64
-49.28
-44.49
-34.03
-16.11
10.36
44.87
85.17
127.50
167.22
199.75
221.65
231.39
229.41
217.98
200.21
179.20
157.70
137.70
120.40
106.38
95.57
87.16
79.63
70.91
58.73
41.36
17.93
-11.19
-44.30
-78.98
-112.64
-143.13
-169.28
-190.89
-208.37
-222.63
-234.42
-244.03
-251.20
-254.96
-253.40
-244.03
-224.21
-191.89
-146.72
-90.58
-27.62
36.30
94.83
142.59
175.99
193.63
196.21
186.02
166.41
141.32
114.59
89.45
68.17
51.53
38.92
28.73
19.08
8.57
-3.10
-15.08
-25.66
-32.97
-35.64
-33.23
-26.25
-15.98
-3.96
8.29
19.53
28.78
35.26
38.30
37.58
33.20
25.72
16.01
5.10
-6.36
-18.20
-30.64
-43.98
-58.25
-73.26
-88.68
-104.16
-119.21
-133.22
-145.23
-153.98
-158.10
-156.55
-149.14
-136.60
-120.28
-101.38
-80.81
-59.15
-36.90
-14.51
7.30
27.54
45.04
58.76
68.76
75.28
78.19
76.90
70.81
59.78
44.36
25.84
6.40
-10.03
-20.29
-23.38
-20.82
-15.28
-9.56
-5.88
-5.78
-9.34
-13.49
-15.05
-12.43
-5.83
4.38
18.00
34.93
54.33
75.51
100.50
130.67
165.24
201.68
238.12
273.63
308.38
342.22
356.36
338.56
292.12
232.46
172.64
117.83
67.79
23.67
-19.05
-61.63
-100.89
-133.98
-161.21
-186.61
-209.18
-228.73
-244.64
-256.48
-263.04
-261.38
-249.93
-229.94
-205.26
-179.95
-157.60
-139.99
-127.50
-118.52
-109.29
-96.38
-78.09
-54.71
-27.52
1.31
29.57
54.92
75.78
91.73
102.92
109.69
112.57
112.54
110.55
107.51
103.82
99.57
94.70
88.86
81.53
72.27
60.94
47.68
33.10
18.16
4.14
-7.79
-16.87
-22.99
-26.53
-28.18
-28.57
-28.04
-26.62
-24.27
-21.21
-17.94
-15.26
-13.87
-14.19
-16.21
-19.61
-23.84
-28.40
-32.92
-37.07
-40.65
-43.48
-45.39
-46.26
-46.00
-44.53
-41.83
-37.93
-32.83
-26.59
-19.26
-11.00
-2.09
7.02
15.69
23.23
29.00
32.63
34.05
33.48
31.46
28.64
25.71
23.22
21.52
20.73
20.79
21.51
22.68
24.17
25.81
27.47
29.03
30.34
31.29
31.87
32.02
31.75
31.05
29.92
28.38
26.54
24.56
22.60
20.77
19.06
17.37
15.53
13.44
11.09
8.56
5.98
3.38
0.71
-2.17
-5.28
-8.46
-11.37
-13.49
-14.43
-14.06
-12.51
-10.19
-7.58
-5.06
-2.89
-1.15
0.19
1.14
1.71
1.91
1.65
0.82
-0.68
-2.90
-5.73
-8.84
-11.84
-14.30
-15.89
-16.50
-16.17
-15.12
-13.66
-12.06
-10.53
-9.24
-8.24
-7.56
-7.16
-6.98
-6.96
-7.15
-7.57
-8.18
-8.95
-9.75
-10.54
-11.24
-11.91
-12.52
-12.99
-13.12
-12.66
-11.53
-9.78
-7.71
-5.68
-3.98
-2.67
-1.68
-0.81
0.15
1.41
3.25
5.89
9.40
13.56
17.84
21.58
24.17
25.35
25.22
24.31
23.21
22.31
21.76
21.38
20.93
20.15
19.04
17.77
16.68
16.01
15.68
15.36
14.43
12.46
9.29
5.30
1.12
-2.60
-5.38
-7.11
-7.91
-8.05
-7.75
-7.18
-6.42
-5.55
-4.61
-3.58
-2.50
-1.47
-0.71
-0.45
-0.86
-1.93
-3.49
-5.24
-6.87
-8.10
-8.75
-8.79
-8.27
-7.39
-6.32
-5.23
-4.20
-3.20
-2.17
-1.03
0.14
1.17
1.79
1.82
1.23
0.20
-1.00
-2.07
-2.75
-2.86
-2.39
-1.50
-0.53
0.16
0.24
-0.43
-1.82
-3.69
-5.68
-7.47
-8.80
-9.53
-9.60
-9.07
-7.99
-6.51
-4.83
-3.18
-1.79
-0.80
-0.33
-0.29
-0.53
-0.80
-0.83
-0.54
0.09
0.92
1.84
2.71
3.58
4.49
5.47
6.49
7.41
8.03
8.18
7.78
6.84
5.57
4.17
2.82
1.60
0.52
-0.44
-1.31
-2.01
-2.45
-2.49
-2.21
-1.81
-1.56
-1.71
-2.28
-3.10
-3.95
-4.57
-4.91
-5.05
-5.13
-5.27
-5.58
-6.04
-6.66
-7.42
-8.28
-9.11
-9.73
-9.89
-9.39
-8.20
-6.41
-4.22
-1.91
0.21
1.88
2.85
2.88
1.95
0.07
-2.49
-5.33
-8.00
-10.10
-11.34
-11.63
-11.01
-9.64
-7.74
-5.51
-3.14
-0.81
1.40
3.40
5.14
6.56
7.61
8.19
8.26
7.80
6.83
5.41
3.64
1.64
-0.42
-2.36
-3.97
-5.08
-5.61
-5.61
-5.23
-4.62
-3.90
-3.09
-2.21
-1.35
-0.77
-0.73
-1.56
-3.38
-6.01
-9.07
-12.03
-14.43
-15.98
-16.50
-15.97
-14.38
-11.80
-8.32
-4.25
0.01
3.96
7.17
9.35
10.46
10.66
10.15
9.21
8.05
6.81
5.69
4.73
4.02
3.50
3.16
2.87
2.60
2.35
2.17
2.17
2.40
2.91
3.68
4.69
5.83
6.91
7.64
7.72
6.98
5.38
3.15
0.65
-1.72
-3.63
-4.89
-5.46
-5.43
-4.93
-4.16
-3.28
-2.46
-1.81
-1.39
-1.19
-1.17
-1.34
-1.69
-2.18
-2.73
-3.24
-3.62
-3.77
-3.72
-3.50
-3.14
-2.64
-2.01
-1.20
-0.21
0.95
2.35
4.01
5.86
7.72
9.24
10.11
10.13
9.36
8.08
6.67
5.40
4.33
3.34
2.24
1.01
-0.20
-1.00
-1.05
-0.19
1.37
3.09
4.27
4.27
2.75
-0.24
-4.29
-8.81
-13.18
-16.91
-19.68
-21.44
-22.54
-23.54
-25.14
-27.80
-31.34
-34.83
-36.78
-35.63
-30.38
-21.02
-8.47
5.68
19.77
32.43
42.69
49.81
53.19
52.29
46.86
37.28
24.75
11.19
-1.13
-10.32
-15.48
-16.94
-16.03
-14.49
-13.78
-14.58
-16.63
-18.87
-19.99
-18.91
-15.22
-9.47
-2.95
2.62
5.66
5.40
2.27
-2.03
-4.80
-3.23
4.61
18.91
37.87
58.15
76.14
89.39
97.36
101.51
104.41
108.51
115.48
126.03
139.95
156.66
175.54
195.97
217.37
239.44
261.73
283.20
301.54
313.21
314.35
302.11
275.65
236.68
188.85
136.14
81.42
25.60
-31.86
-92.07
-155.28
-219.60
-280.22
-328.59
-354.07
-347.35
-305.04
-232.90
-146.27
-66.74
-15.91
-9.28
-50.31
-129.73
-229.49
-329.05
-410.60
-462.27
-479.63
-465.07
-428.25
-380.18
-329.71
-282.12
-239.31
-199.87
-159.81
-115.88
-67.79
-22.33
14.31
40.36
58.15
70.46
77.71
77.31
63.66
31.06
-26.77
-106.22
-192.13
-264.29
-306.45
-311.10
-279.67
-221.19
-123.41
-0.95
110.08
179.10
201.78
192.75
169.95
147.42
127.42
107.82
81.50
45.64
3.85
-37.20
-70.03
-88.65
-87.31
-62.73
-15.77
43.78
104.47
158.11
200.96
232.32
253.77
268.04
277.34
283.20
283.97
278.82
268.71
254.86
237.08
214.46
187.01
155.81
123.44
91.65
62.52
38.58
22.14
13.73
11.42
10.90
5.94
-9.64
-40.28
-85.90
-140.90
-195.46
-238.34
-259.88
-254.62
-222.75
-169.92
-105.76
-40.84
16.52
61.81
94.66
117.68
134.39
147.18
156.37
160.07
156.09
144.71
128.40
110.55
94.51
81.92
72.29
63.83
53.95
41.22
28.20
18.81
15.81
20.21
30.50
43.45
55.65
63.45
65.10
63.99
64.75
69.99
80.03
91.84
100.25
99.89
84.82
51.84
4.67
-50.48
-108.40
-164.88
-218.30
-268.40
-303.86
-312.03
-309.27
-306.27
-296.15
-273.08
-231.14
-166.89
-80.05
26.13
141.60
254.08
344.50
389.78
379.63
327.03
255.97
186.59
135.16
94.85
57.28
18.03
-24.76
-72.41
-124.07
-178.53
-233.12
-282.88
-323.19
-348.64
-354.55
-338.73
-302.24
-248.86
-185.45
-120.01
-59.51
-9.91
26.55
50.67
65.41
74.60
81.66
87.85
92.52
94.24
91.13
83.12
71.57
59.10
48.83
43.28
43.23
47.85
55.40
63.75
71.51
77.63
81.50
82.83
81.38
76.90
69.27
58.80
45.97
31.63
16.56
1.49
-12.72
-25.00
-34.08
-38.91
-38.92
-34.44
-26.61
-17.11
-7.74
0.06
5.45
8.22
8.64
7.25
4.69
1.47
-2.14
-6.10
-10.42
-15.03
-19.59
-23.51
-26.05
-26.60
-24.96
-21.34
-16.32
-10.54
-4.57
1.17
6.50
11.37
15.91
20.40
25.20
30.44
35.83
40.50
43.19
42.73
38.55
31.06
21.54
11.76
3.29
-3.06
-7.43
-10.78
-14.34
-19.10
-25.49
-33.34
-42.00
-50.59
-58.13
-63.54
-65.69
-63.53
-56.42
-44.53
-28.98
-11.77
4.75
18.58
28.61
34.77
37.78
38.57
37.67
35.09
30.46
23.31
13.43
0.95
-13.78
-30.41
-48.57
-67.69
-86.76
-104.19
-118.15
-127.28
-131.32
-131.39
-129.70
-128.44
-128.82
-130.33
-130.87
-127.84
-119.24
-104.63
-85.17
-63.02
-40.46
-19.48
-1.45
13.11
24.64
35.08
47.83
67.06
96.03
135.33
181.48
227.60
265.74
289.63
296.92
289.32
271.11
246.97
220.32
192.96
165.78
139.83
116.59
97.67
83.96
75.06
69.38
64.80
59.51
52.62
44.30
35.32
26.62
18.62
10.95
2.65
-7.26
-19.21
-32.66
-46.25
-58.24
-67.04
-71.72
-72.32
-69.70
-65.15
-59.98
-55.13
-51.01
-47.51
-44.25
-40.86
-37.12
-33.00
-28.59
-23.96
-19.20
-14.49
-10.16
-6.62
-4.23
-3.14
-3.13
-3.76
-4.59
-5.44
-6.50
-8.33
-11.53
-16.47
-23.19
-31.27
-39.98
-48.48
-55.88
-61.47
-64.76
-65.54
-63.83
-59.83
-53.92
-46.53
-38.12
-29.09
-19.79
-10.45
-1.36
7.18
14.84
21.21
25.99
28.98
30.22
29.75
27.70
24.13
19.16
13.11
6.52
0.11
-5.40
-9.46
-11.98
-13.24
-13.81
-14.21
-14.70
-15.22
-15.50
-15.33
-14.76
-14.15
-13.99
-14.59
-15.89
-17.39
-18.40
-18.37
-17.13
-14.84
-11.91
-8.67
-5.28
-1.83
1.61
4.69
6.93
7.88
7.31
5.41
2.70
-0.14
-2.61
-4.45
-5.72
-6.65
-7.41
-8.06
-8.48
-8.53
-8.03
-6.96
-5.36
-3.38
-1.15
1.21
3.60
5.95
8.13
9.99
11.37
12.12
12.21
11.67
10.68
9.47
8.25
7.21
6.41
5.80
5.28
4.75
4.10
3.31
2.36
1.27
0.08
-1.11
-2.20
-3.10
-3.71
-4.05
-4.10
-3.97
-3.76
-3.57
-3.48
-3.52
-3.67
-3.86
-4.01
-4.06
-3.98
-3.80
-3.55
-3.22
-2.77
-2.13
-1.26
-0.22
0.85
1.76
2.35
2.63
2.74
3.00
3.74
5.27
7.71
11.05
15.21
20.02
25.36
30.96
36.37
40.95
43.90
44.51
42.31
37.27
29.74
20.41
10.10
-0.46
-10.59
-19.69
-27.18
-32.49
-35.10
-34.66
-31.18
-25.16
-17.60
-9.73
-2.82
2.08
4.32
3.55
-0.19
-6.55
-14.74
-23.59
-31.56
-37.17
-39.35
-37.78
-32.99
-26.19
-18.79
-11.97
-6.53
-2.74
-0.57
0.19
-0.10
-1.02
-2.06
-2.68
-2.43
-1.05
1.46
4.83
8.66
12.57
16.30
19.75
22.91
25.79
28.36
30.50
32.08
32.98
33.13
32.53
31.22
29.30
26.87
24.04
21.00
17.90
14.90
12.11
9.57
7.19
4.90
2.64
0.46
-1.44
-2.76
-3.17
-2.51
-0.76
1.94
5.34
9.18
13.21
17.09
20.48
22.98
24.30
24.31
23.08
20.79
17.64
13.74
9.12
3.85
-2.02
-8.37
-15.09
-22.15
-29.57
-37.29
-45.20
-53.13
-60.83
-68.17
-75.09
-81.55
-87.47
-92.64
-96.80
-99.70
-101.21
-101.33
-100.09
-97.51
-93.44
-87.67
-79.99
-70.28
-58.62
-45.30
-30.71
-15.32
0.31
15.63
30.07
43.10
54.29
63.42
70.42
75.43
78.67
80.38
80.80
80.14
78.60
76.35
73.49
70.09
66.06
61.27
55.53
48.80
41.18
32.87
24.18
15.36
6.63
-1.82
-9.81
-17.08
-23.36
-28.37
-32.00
-34.28
-35.35
-35.37
-34.40
-32.36
-29.21
-25.00
-19.89
-14.26
-8.52
-3.05
1.86
6.08
9.59
12.43
14.61
16.09
16.85
16.91
16.38
15.37
14.00
12.37
10.57
8.70
6.85
5.06
3.42
2.01
0.72
-0.55
-1.84
-3.01
-3.86
-4.09
-3.52
-1.91
0.92
4.53
8.32
11.71
14.58
17.09
19.58
22.40
25.89
30.36
35.09
39.10
41.66
42.84
43.26
43.56
44.29
46.00
49.29
53.28
56.62
58.19
57.87
56.14
53.28
49.15
43.31
35.47
23.60
5.76
-19.11
-50.39
-86.82
-127.86
-173.98
-225.69
-271.01
-296.23
-292.88
-264.36
-221.30
-174.33
-130.94
-95.31
-68.29
-47.99
-32.83
-21.22
-12.51
-6.05
-1.02
3.30
7.57
12.73
19.69
27.93
37.61
49.71
66.60
90.92
123.30
161.04
198.80
230.31
245.51
243.16
226.38
200.81
172.07
143.49
115.80
89.27
65.13
45.58
33.95
31.57
37.42
47.81
56.79
57.15
43.55
14.61
-25.97
-69.64
-106.90
-131.37
-140.98
-139.01
-132.10
-126.97
-127.58
-133.75
-141.40
-145.11
-139.74
-122.30
-93.21
-56.62
-19.34
10.73
27.42
29.02
18.50
3.00
-9.29
-12.58
-5.62
8.43
23.98
36.02
42.87
46.39
51.22
61.67
79.20
101.22
122.30
136.43
139.68
131.47
110.91
80.15
42.17
-0.38
-45.26
-89.69
-129.44
-158.92
-172.47
-166.55
-141.01
-100.25
-51.98
-4.70
34.80
62.86
78.83
84.02
80.36
70.08
55.06
37.21
18.67
1.76
-11.46
-19.77
-22.99
-21.89
-17.39
-10.47
-1.97
7.31
16.30
23.48
27.14
25.98
19.98
11.07
2.71
-1.25
1.96
12.67
28.37
44.49
55.89
58.75
51.85
36.81
17.42
-1.54
-15.68
-21.92
-19.37
-9.63
3.24
13.50
15.33
4.78
-18.46
-50.60
-84.72
-112.95
-128.94
-129.56
-115.18
-88.90
-55.25
-19.30
13.86
39.41
53.29
53.00
38.45
12.45
-19.67
-50.93
-74.08
-83.05
-74.23
-47.58
-7.08
39.67
82.96
113.38
124.38
114.18
86.16
47.61
7.56
-25.80
-46.94
-53.78
-47.51
-31.85
-12.11
5.81
16.40
15.68
2.06
-23.10
-55.58
-89.21
-117.26
-134.01
-136.05
-122.86
-96.75
-62.17
-24.81
9.47
35.49
49.63
50.66
40.09
22.01
2.14
-13.74
-21.41
-19.22
-8.31
8.19
26.18
41.69
51.34
52.70
44.62
27.54
3.86
-22.31
-45.90
-62.36
-69.08
-66.24
-56.53
-44.02
-32.90
-26.26
-25.69
-31.34
-42.12
-56.23
-71.40
-85.20
-95.29
-99.79
-97.59
-88.62
-73.89
-55.07
-34.23
-13.21
6.54
24.00
38.47
49.46
56.72
60.42
61.46
61.46
62.43
66.09
73.21
83.27
94.55
104.64
111.32
113.22
110.30
103.86
96.15
89.67
86.49
87.66
92.92
100.97
109.89
117.64
122.45
123.05
118.61
108.92
94.49
76.59
57.15
38.34
22.00
9.23
0.15
-5.89
-9.97
-13.20
-16.51
-20.67
-26.18
-33.20
-41.32
-49.36
-55.64
-58.38
-56.38
-49.61
-39.40
-28.21
-18.84
-13.55
-13.35
-17.79
-25.23
-33.48
-40.48
-44.77
-45.51
-42.41
-35.59
-25.63
-13.73
-1.72
8.13
13.75
13.98
9.01
0.40
-9.35
-17.59
-22.25
-22.24
-17.57
-9.29
0.97
11.31
19.94
25.55
27.39
25.49
20.55
13.88
7.17
2.13
0.17
1.94
7.13
14.55
22.38
28.73
32.13
31.78
27.64
20.33
10.94
0.86
-8.35
-15.22
-18.71
-18.43
-14.86
-9.22
-3.18
1.59
3.87
3.11
-0.48
-6.05
-12.25
-17.50
-20.33
-19.82
-15.95
-9.73
-2.87
2.80
5.90
5.98
3.48
-0.52
-4.74
-8.04
-9.48
-8.36
-4.20
3.03
12.62
22.95
31.61
36.09
34.59
26.83
14.27
-0.28
-13.56
-22.85
-26.68
-25.02
-18.97
-10.42
-1.52
5.69
9.54
9.06
4.14
-4.38
-14.87
-25.23
-33.38
-37.61
-37.03
-31.76
-22.99
-12.77
-3.55
2.48
4.07
1.29
-4.52
-11.35
-17.20
-20.64
-20.99
-18.03
-11.78
-2.41
9.49
22.55
34.43
42.19
43.19
36.15
21.91
3.47
-14.83
-28.61
-34.85
-32.63
-23.20
-9.29
5.86
19.33
28.96
33.34
31.78
24.26
11.66
-4.10
-20.15
-33.24
-40.61
-40.85
-34.35
-23.22
-10.59
0.20
6.41
6.38
-0.19
-12.14
-26.98
-41.29
-51.37
-54.17
-48.07
-33.35
-12.14
12.12
35.51
54.40
66.00
68.78
62.47
48.15
28.07
5.43
-16.05
-32.76
-41.91
-42.07
-33.58
-18.51
-0.27
17.15
30.04
35.80
33.48
23.99
9.78
-5.75
-19.14
-27.65
-29.89
-25.96
-17.32
-6.41
3.95
11.12
13.23
9.59
0.86
-11.03
-23.41
-33.51
-39.31
-40.03
-36.21
-29.30
-21.02
-12.92
-6.04
-1.24
0.56
-1.74
-9.18
-22.19
-39.96
-60.24
-79.72
-94.88
-103.08
-103.29
-96.16
-83.62
-68.13
-52.06
-37.46
-26.04
-19.14
-17.54
-21.14
-28.65
-37.64
-45.02
-47.91
-44.53
-34.77
-20.15
-3.32
12.77
25.75
34.43
39.10
41.24
42.97
46.23
52.04
60.24
69.65
78.85
86.90
93.86
100.51
107.70
115.47
122.57
126.79
125.86
118.65
105.81
89.65
73.37
59.82
50.58
45.70
43.97
43.63
43.02
40.90
36.58
29.80
20.61
9.40
-3.01
-15.41
-26.28
-34.18
-38.14
-38.13
-35.01
-30.43
-26.21
-23.80
-23.86
-26.15
-29.80
-33.66
-36.73
-38.20
-37.60
-34.61
-29.15
-21.40
-11.99
-1.98
7.24
14.18
17.69
17.16
12.84
5.77
-2.37
-9.71
-14.57
-15.96
-13.70
-8.46
-1.45
5.85
12.06
16.07
17.16
15.06
9.95
2.64
-5.52
-12.74
-17.28
-17.85
-14.12
-6.89
2.22
11.17
18.16
22.05
22.51
19.90
15.05
9.08
3.32
-0.70
-1.53
1.78
9.16
19.18
29.25
36.37
38.17
33.80
24.40
12.61
1.63
-5.93
-8.70
-6.76
-1.21
6.36
14.29
20.95
24.68
23.88
17.41
4.99
-12.35
-32.37
-52.22
-69.14
-81.15
-87.24
-87.24
-81.49
-70.58
-55.41
-37.33
-18.12
0.20
15.82
27.57
35.13
38.89
39.66
38.33
35.70
32.32
28.60
24.72
20.72
16.46
11.85
6.89
1.77
-3.15
-7.46
-10.84
-13.15
-14.42
-14.78
-14.44
-13.62
-12.69
-12.05
-12.10
-13.15
-15.20
-17.98
-20.99
-23.71
-25.77
-27.05
-27.65
-27.74
-27.43
-26.70
-25.38
-23.33
-20.56
-17.43
-14.59
-12.76
-12.38
-13.29
-14.78
-15.88
-15.91
-14.89
-13.58
-13.08
-14.23
-17.11
-20.80
-23.85
-24.78
-22.74
-17.66
-10.23
-1.53
7.30
15.20
21.28
24.79
25.26
22.76
18.04
12.41
7.43
4.31
3.52
4.79
7.41
10.76
14.72
19.55
25.61
32.72
39.95
45.81
48.83
48.20
44.18
38.06
31.59
26.31
23.01
21.41
20.39
18.47
14.37
7.38
-2.50
-14.57
-27.67
-40.36
-51.13
-58.69
-62.12
-61.25
-56.67
-49.73
-42.26
-36.21
-33.14
-33.93
-38.54
-46.09
-55.05
-63.75
-70.74
-75.23
-77.25
-77.51
-77.08
-76.95
-77.76
-79.77
-82.89
-86.71
-90.51
-93.16
-93.05
-88.44
-78.01
-61.53
-40.35
-17.25
4.26
20.98
31.02
34.29
32.34
27.73
23.12
20.66
21.61
26.42
34.87
46.32
59.86
74.29
88.28
100.43
109.61
115.17
117.19
116.33
113.64
110.03
105.98
101.27
95.15
86.67
75.30
61.40
46.33
32.09
20.85
14.29
13.22
17.49
25.93
36.39
45.94
51.17
48.67
35.86
11.66
-23.00
-65.32
-111.19
-156.04
-195.72
-227.06
-248.13
-258.14
-257.20
-246.04
-226.01
-199.10
-168.03
-136.44
-108.31
-87.17
-75.03
-71.77
-75.27
-82.31
-90.01
-96.91
-103.45
-111.21
-121.53
-134.15
-146.83
-156.08
-158.46
-152.01
-136.81
-114.58
-87.81
-58.72
-28.86
0.84
29.74
57.29
83.27
107.93
131.68
154.49
175.18
191.39
200.81
202.60
198.48
192.51
189.39
192.25
201.11
213.10
223.87
229.81
229.51
223.76
214.63
204.16
193.58
183.31
173.36
163.64
154.01
144.42
134.65
124.52
113.93
103.07
92.44
82.67
74.38
67.88
63.20
59.93
57.41
54.87
51.68
47.60
42.90
38.24
34.44
32.25
32.19
34.24
37.95
42.40
46.53
49.32
50.04
48.50
45.20
41.34
38.46
37.94
40.46
45.79
52.78
59.52
63.81
63.44
56.75
42.40
19.52
-12.01
-51.19
-95.77
-142.60
-188.32
-230.11
-265.42
-292.66
-310.46
-316.73
-308.12
-280.55
-230.89
-158.64
-66.81
39.23
150.73
256.66
345.81
409.36
442.84
446.83
426.57
390.52
350.01
313.84
286.26
267.52
256.06
250.35
249.13
250.84
253.23
255.65
255.48
248.40
230.07
198.22
153.50
98.43
36.08
-46.20
-147.46
-254.18
-347.23
-413.45
-450.20
-461.73
-454.12
-433.00
-402.90
-365.09
-322.02
-278.04
-238.38
-206.92
-183.96
-165.95
-147.42
-122.68
-86.25
-38.16
15.01
62.37
93.08
100.83
85.66
53.03
11.32
-30.10
-65.16
-91.55
-107.32
-111.24
-102.25
-80.16
-46.56
-5.19
38.99
79.53
109.81
124.48
120.35
97.15
57.04
3.91
-57.11
-119.97
-178.59
-227.18
-260.59
-275.34
-269.69
-244.60
-203.67
-152.04
-95.62
-40.47
8.17
46.68
72.74
86.22
87.92
79.17
62.20
39.51
13.02
-15.61
-44.40
-71.41
-93.37
-107.38
-111.43
-103.34
-81.16
-44.09
7.59
72.77
148.46
231.21
311.85
373.39
401.71
394.65
361.21
314.19
269.03
226.67
185.18
142.26
94.40
40.62
-15.66
-69.50
-117.33
-157.25
-188.08
-205.22
-202.05
-176.74
-130.85
-71.06
-9.26
40.08
64.52
57.65
22.48
-31.80
-100.18
-178.30
-262.04
-346.71
-427.40
-500.10
-562.79
-614.45
-628.83
-592.20
-507.42
-394.45
-276.07
-165.76
-66.97
21.53
97.77
165.92
219.15
249.56
254.07
237.55
210.82
186.20
171.51
170.10
183.11
198.10
202.39
189.11
160.55
125.68
95.61
79.20
81.68
103.10
134.55
165.41
186.63
192.66
180.79
151.23
103.29
45.26
-7.03
-41.66
-55.50
-53.41
-42.46
-30.22
-17.44
-2.55
15.44
33.93
45.50
42.52
19.30
-25.02
-88.10
-165.32
-248.10
-325.43
-387.33
-427.83
-444.48
-437.53
-409.21
-363.41
-303.94
-230.08
-139.07
-30.51
90.85
216.88
339.40
452.36
552.17
614.81
621.08
570.48
482.81
382.86
287.24
203.03
131.97
73.67
27.03
-5.97
-23.82
-28.32
-25.19
-21.16
-21.14
-27.13
-38.96
-55.28
-71.36
-82.44
-86.15
-83.65
-77.51
-69.89
-61.63
-52.38
-41.19
-25.51
-3.97
21.48
45.42
61.51
65.71
58.36
43.71
27.71
16.07
11.40
12.53
15.80
17.69
15.97
10.63
2.28
-9.18
-24.31
-43.17
-63.93
-82.55
-94.08
-95.00
-85.20
-68.43
-50.52
-36.50
-28.41
-25.09
-23.43
-20.56
-15.45
-9.15
-4.08
-2.64
-6.26
-14.92
-27.46
-42.11
-56.98
-70.32
-80.70
-86.96
-88.11
-83.40
-72.24
-54.63
-31.37
-4.26
24.07
50.66
72.89
89.02
98.37
101.09
97.81
89.38
76.89
61.72
45.61
30.30
17.18
6.70
-1.58
-8.74
-15.81
-23.22
-30.74
-37.76
-43.74
-48.46
-52.15
-55.03
-57.01
-57.56
-55.82
-51.09
-43.05
-31.96
-18.56
-3.88
10.92
24.50
35.47
42.53
44.74
41.82
34.36
23.63
11.35
-0.71
-11.10
-18.86
-23.52
-25.02
-23.62
-19.84
-14.44
-8.28
-2.15
3.31
7.77
11.22
13.81
15.76
17.17
17.99
18.02
17.15
15.42
13.17
10.93
9.24
8.50
8.79
9.91
11.43
12.87
13.75
13.72
12.56
10.26
7.06
3.38
-0.30
-3.65
-6.52
-8.93
-10.86
-12.18
-12.64
-12.06
-10.51
-8.34
-6.14
-4.45
-3.56
-3.52
-4.08
-5.02
-6.11
-7.19
-8.15
-8.85
-9.17
-8.96
-8.19
-6.91
-5.30
-3.56
-1.85
-0.21
1.42
3.12
4.87
6.48
7.64
8.00
7.38
5.84
3.69
1.37
-0.72
-2.29
-3.15
-3.14
-2.14
-0.10
2.96
6.82
11.12
15.36
19.10
21.93
23.60
24.00
23.15
21.23
18.48
15.17
11.48
7.41
2.83
-2.47
-8.60
-15.50
-22.86
-30.17
-36.87
-42.40
-46.26
-48.01
-47.31
-43.90
-37.78
-29.28
-19.22
-8.68
1.15
9.29
15.19
18.69
19.98
19.37
17.24
13.94
9.83
5.31
0.77
-3.50
-7.36
-10.98
-14.66
-18.86
-23.96
-30.10
-36.87
-43.27
-47.84
-49.07
-46.10
-39.04
-29.04
-17.98
-7.77
0.15
5.13
7.26
7.25
6.03
4.62
3.94
4.62
6.84
10.13
13.47
15.56
15.30
12.15
6.40
-0.80
-7.69
-12.37
-13.33
-9.87
-2.32
8.16
19.94
31.24
40.63
47.18
50.55
50.90
48.72
44.68
39.47
33.75
28.15
23.19
19.34
16.87
15.68
15.28
15.01
14.27
12.88
11.21
9.91
9.47
9.96
10.92
11.57
11.28
9.85
7.48
4.59
1.52
-1.75
-5.42
-9.71
-14.50
-19.29
-23.26
-25.59
-25.74
-23.52
-19.26
-13.56
-7.24
-1.18
3.82
7.21
8.76
8.69
7.55
6.02
4.66
3.69
3.00
2.38
1.66
0.90
0.31
0.09
0.25
0.66
1.06
1.20
1.05
0.65
0.09
-0.60
-1.53
-2.86
-4.62
-6.69
-8.72
-10.21
-10.71
-9.92
-7.86
-4.85
-1.38
2.06
5.10
7.50
9.15
9.96
9.84
8.79
6.97
4.69
2.44
0.70
-0.23
-0.28
0.29
1.05
1.54
1.40
0.39
-1.55
-4.34
-7.73
-11.25
-14.26
-16.07
-16.12
-14.25
-10.76
-6.34
-1.84
2.03
4.96
7.01
8.50
9.71
10.79
11.73
12.45
12.89
13.07
13.03
12.66
11.80
10.22
7.82
4.78
1.60
-1.13
-2.80
-3.06
-1.92
0.43
3.54
6.89
9.86
11.91
12.51
11.40
8.56
4.38
-0.38
-4.83
-8.12
-9.68
-9.29
-7.19
-3.93
-0.33
2.72
4.42
4.25
2.03
-1.92
-6.92
-12.03
-16.27
-18.89
-19.47
-18.03
-14.99
-10.97
-6.64
-2.65
0.53
2.66
3.71
3.86
3.42
2.70
2.04
1.53
1.04
0.24
-1.18
-3.35
-6.13
-9.12
-11.93
-14.26
-16.16
-17.87
-19.71
-21.70
-23.53
-24.62
-24.29
-22.16
-18.26
-13.09
-7.44
-2.17
1.98
4.52
5.27
4.41
2.36
-0.33
-3.03
-5.19
-6.39
-6.47
-5.50
-3.80
-1.79
0.11
1.56
2.50
3.11
3.81
5.05
7.16
10.20
13.91
17.77
21.17
23.60
24.77
24.63
23.31
20.92
17.56
13.20
7.90
1.86
-4.47
-10.49
-15.68
-19.82
-23.15
-26.29
-30.07
-35.06
-41.33
-48.31
-54.93
-59.89
-62.02
-60.49
-54.96
-45.66
-33.25
-18.79
-3.63
10.64
22.55
30.87
35.02
35.16
32.09
27.12
21.63
16.91
13.79
12.62
13.26
15.17
17.59
19.74
20.99
20.92
19.44
16.74
13.32
9.91
7.42
6.74
8.45
12.68
18.93
26.26
33.58
40.02
45.11
48.78
51.25
52.78
53.67
54.24
54.68
55.02
54.85
53.25
48.85
40.16
26.11
6.47
-17.97
-45.50
-73.62
-99.33
-119.29
-130.15
-129.07
-114.48
-86.62
-47.93
-2.61
44.21
87.62
123.74
150.30
166.50
172.61
169.56
158.52
140.77
117.69
90.71
61.17
30.20
-1.37
-33.13
-64.77
-95.88
-125.61
-152.73
-175.74
-193.49
-205.52
-212.33
-215.18
-215.38
-213.68
-209.65
-201.72
-187.38
-164.10
-130.08
-84.95
-30.17
31.17
94.71
155.62
209.37
252.38
282.50
299.11
302.95
295.69
279.53
256.65
228.93
197.90
164.70
130.35
95.78
61.84
29.11
-2.15
-32.08
-61.00
-89.05
-116.06
-141.22
-163.33
-181.00
-193.02
-198.66
-197.90
-191.51
-180.86
-167.72
-153.71
-140.01
-127.05
-114.47
-101.38
-86.67
-69.38
-49.06
-25.96
-1.00
24.25
47.88
68.06
83.28
92.73
96.43
95.14
90.14
82.98
75.08
67.59
61.28
56.46
53.02
50.52
48.25
45.41
41.28
35.39
27.73
18.84
9.77
1.85
-3.46
-5.01
-2.13
5.19
16.29
29.95
44.58
58.39
69.68
76.96
79.08
75.51
66.32
52.17
34.14
13.41
-8.99
-32.24
-55.83
-79.33
-102.13
-123.32
-141.58
-155.33
-162.94
-163.11
-155.11
-138.91
-115.14
-84.85
-49.52
-11.14
27.57
63.26
92.27
111.46
119.07
115.19
101.83
82.20
60.04
38.73
21.04
8.99
3.84
5.99
14.73
28.08
42.63
54.07
58.10
51.48
33.14
4.65
-30.11
-65.99
-97.79
-121.41
-134.41
-136.00
-126.79
-108.48
-83.75
-56.08
-29.46
-7.72
6.24
11.30
8.42
0.42
-8.56
-14.27
-13.28
-3.92
13.31
35.96
60.40
82.98
100.74
112.04
116.51
114.77
107.95
97.40
84.60
70.97
57.83
46.07
36.05
27.44
19.55
11.61
3.21
-5.61
-14.38
-22.46
-29.38
-34.96
-39.43
-43.21
-46.74
-50.24
-53.64
-56.63
-58.77
-59.73
-59.29
-57.42
-54.09
-49.31
-42.89
-34.59
-24.18
-11.70
2.40
17.15
31.33
43.76
53.59
60.48
64.56
66.29
66.22
65.06
63.52
62.24
61.52
60.98
59.40
54.94
45.78
30.84
10.37
-14.10
-40.15
-65.00
-86.09
-101.16
-108.45
-106.81
-96.04
-77.31
-53.34
-28.12
-5.98
9.39
15.95
13.67
4.29
-9.27
-23.89
-36.92
-46.71
-52.79
-55.81
-57.15
-58.54
-61.52
-67.01
-75.09
-84.94
-95.13
-103.98
-109.96
-111.86
-108.83
-100.21
-85.39
-63.84
-35.25
0.15
41.28
86.17
132.07
175.65
213.39
241.84
257.95
259.58
245.93
217.84
177.76
129.41
77.02
24.74
-23.89
-66.02
-99.35
-122.05
-132.86
-131.36
-118.39
-96.17
-68.06
-38.10
-10.14
12.92
29.56
39.80
44.80
46.28
46.03
45.53
45.74
47.23
50.11
54.05
58.34
61.90
63.44
61.97
56.95
48.53
37.54
25.08
12.32
0.27
-10.24
-18.40
-23.43
-24.70
-21.96
-15.53
-6.27
4.56
15.75
26.36
35.87
43.95
50.18
53.86
54.11
50.09
41.35
28.02
10.64
-9.82
-32.14
-54.78
-75.79
-92.84
-103.78
-107.35
-103.83
-95.43
-85.71
-78.50
-76.63
-81.07
-90.91
-103.97
-117.76
-130.07
-139.42
-145.00
-146.66
-145.08
-141.68
-138.38
-136.72
-136.65
-135.76
-129.43
-112.24
-80.03
-31.91
28.99
96.28
162.10
219.51
264.01
294.09
310.55
315.41
310.67
297.90
278.41
253.63
225.37
195.67
166.21
137.69
109.60
80.50
48.86
14.10
-22.79
-59.43
-92.77
-119.93
-138.77
-148.25
-148.22
-139.20
-122.18
-98.54
-70.22
-39.71
-9.86
16.68
37.73
51.66
57.76
56.56
49.61
38.96
26.39
12.87
-1.70
-18.58
-40.15
-68.56
-103.86
-143.00
-180.39
-209.79
-225.93
-225.96
-210.11
-181.98
-146.61
-108.00
-68.27
-28.39
10.49
47.02
80.19
109.10
131.63
144.15
142.65
123.79
85.76
29.26
-41.32
-115.43
-174.10
-198.99
-185.04
-142.58
-87.91
-34.11
12.18
49.83
80.79
106.64
126.40
136.45
133.11
115.19
84.95
47.92
11.55
-16.53
-32.17
-36.41
-34.69
-33.09
-34.44
-36.68
-33.59
-18.50
13.52
61.15
116.84
169.18
207.52
225.24
220.59
196.39
157.85
112.00
65.50
23.64
-10.54
-35.97
-53.43
-65.05
-72.88
-78.54
-82.13
-84.15
-85.92
-89.01
-94.09
-100.30
-105.66
-104.10
-92.36
-69.18
-36.74
0.75
39.54
77.39
113.02
144.75
170.22
186.20
190.30
179.79
152.78
109.79
53.65
-11.86
-83.23
-156.97
-230.26
-289.24
-319.14
-314.33
-282.33
-236.34
-187.06
-140.13
-97.37
-59.50
-26.44
0.60
20.76
35.07
47.55
61.58
78.62
98.20
117.79
134.60
145.02
146.82
141.19
131.38
120.85
109.38
98.31
88.69
81.35
74.80
67.03
58.52
50.01
41.97
35.23
31.38
31.45
35.70
41.16
44.15
44.59
42.29
36.70
28.06
17.83
7.21
-3.17
-16.03
-34.34
-56.15
-79.87
-105.13
-131.53
-156.93
-177.73
-176.92
-144.75
-102.84
-60.82
-16.03
29.54
71.37
106.63
135.67
160.80
181.27
194.59
200.81
197.69
180.94
145.07
90.16
24.47
-38.28
-87.22
-116.70
-125.38
-119.61
-111.83
-118.49
-149.46
-203.70
-271.79
-344.17
-413.28
-473.21
-521.21
-524.73
-468.64
-367.76
-253.80
-148.76
-59.38
16.22
78.53
133.89
183.98
224.13
251.78
269.63
283.87
290.70
286.68
269.35
239.32
199.36
150.98
98.31
48.79
10.71
-11.06
-15.40
-5.37
14.13
36.93
55.64
65.99
68.40
66.46
63.78
63.24
65.82
71.54
79.27
86.54
91.29
92.72
91.01
86.72
81.19
75.88
72.29
70.96
71.06
70.93
68.93
64.22
56.95
48.50
40.76
35.37
33.07
33.69
36.32
39.80
43.13
45.60
46.75
45.95
42.30
34.69
22.15
4.34
-18.22
-44.21
-71.86
-99.34
-125.11
-147.60
-165.02
-175.35
-176.75
-168.53
-151.84
-129.48
-104.71
-79.57
-53.97
-26.18
5.30
39.50
71.88
95.30
102.83
90.93
61.39
20.91
-21.56
-58.01
-83.75
-97.97
-102.49
-99.95
-92.39
-80.98
-66.54
-50.72
-36.36
-26.92
-25.36
-32.71
-47.41
-65.63
-82.73
-94.62
-99.11
-96.16
-87.37
-74.94
-60.76
-46.03
-31.45
-17.71
-5.85
2.89
7.58
8.10
5.43
1.55
-1.22
-0.90
3.54
12.02
23.52
36.52
49.43
60.80
69.50
74.71
76.07
73.66
68.16
60.83
53.21
46.80
42.62
40.94
41.26
42.59
43.80
43.95
42.56
39.66
35.73
31.49
27.70
24.94
23.39
22.91
22.99
22.93
22.04
19.82
16.05
10.76
4.37
-2.58
-9.37
-15.31
-19.89
-22.88
-24.22
-24.01
-22.40
-19.55
-15.61
-10.64
-4.64
2.52
10.99
20.83
31.70
42.75
52.63
59.81
63.07
61.95
56.96
49.53
41.54
34.69
29.80
26.43
23.00
17.39
8.06
-5.11
-20.41
-34.82
-45.15
-49.22
-46.54
-38.28
-26.56
-13.57
-1.01
9.99
18.69
24.58
27.32
27.02
24.22
19.83
14.77
9.61
4.49
-0.76
-6.28
-11.92
-17.16
-21.24
-23.51
-23.74
-22.32
-20.00
-17.57
-15.59
-14.13
-12.91
-11.74
-10.41
-8.69
-6.57
-4.70
-4.48
-7.57
-15.33
-27.70
-43.18
-58.81
-71.00
-76.94
-76.02
-69.76
-60.98
-52.36
-45.37
-40.84
-38.69
-37.97
-37.38
-35.88
-32.46
-25.94
-15.22
0.46
18.73
36.37
51.25
62.90
71.28
76.61
79.92
82.11
84.26
82.48
71.99
50.56
18.95
-21.63
-68.86
-117.18
-158.41
-181.53
-183.28
-164.67
-127.76
-75.82
-16.80
38.87
83.19
110.75
121.51
109.13
67.49
-2.75
-94.05
-198.59
-309.37
-418.93
-521.79
-558.17
-489.74
-335.85
-155.05
8.35
139.80
234.75
311.08
375.32
429.13
464.44
475.56
464.88
447.07
433.73
433.97
447.35
459.48
454.32
419.88
348.11
244.90
126.19
5.05
-101.37
-182.55
-238.41
-270.03
-281.97
-279.18
-264.09
-237.71
-203.44
-167.13
-136.44
-122.38
-128.92
-154.70
-194.69
-241.70
-287.84
-326.48
-352.24
-362.16
-360.24
-347.95
-324.83
-291.41
-251.27
-210.51
-176.07
-153.61
-114.87
-55.65
7.94
57.36
87.11
101.36
106.18
106.14
104.25
102.47
97.25
87.94
77.60
69.66
65.07
62.65
60.67
57.78
53.24
43.10
27.31
10.86
1.13
3.87
20.93
49.54
83.27
114.25
133.85
138.94
132.67
121.19
109.60
100.10
92.35
85.16
77.88
69.95
62.28
56.42
53.07
51.40
49.78
46.71
41.85
35.99
30.08
25.27
22.38
21.39
21.42
21.27
20.00
17.41
14.03
10.71
8.27
7.08
6.95
7.30
7.44
6.90
5.59
3.83
2.06
0.68
-0.12
-0.43
-0.51
-0.67
-1.10
-1.84
-2.80
-3.81
-4.74
-5.57
-6.33
-7.12
-8.02
-9.16
-10.67
-12.71
-15.47
-19.10
-23.73
-29.35
-35.73
-42.39
-48.74
-54.06
-57.73
-59.36
-58.69
-55.71
-50.68
-44.00
-36.17
-27.76
-19.39
-11.62
-4.92
0.51
4.78
8.34
11.96
16.51
22.69
30.71
40.09
49.71
58.13
63.98
66.41
65.37
61.63
56.59
51.75
48.20
46.27
45.65
45.63
45.56
45.18
44.79
45.11
46.84
50.18
54.53
58.34
59.29
54.61
42.14
21.30
-5.76
-34.07
-57.07
-68.82
-66.06
-49.35
-23.05
5.87
29.68
41.92
39.02
21.24
-7.30
-39.64
-67.73
-84.95
-87.93
-77.23
-56.47
-30.45
-3.53
21.11
39.64
48.47
44.55
26.44
-4.35
-42.76
-80.92
-110.35
-124.45
-120.60
-100.58
-69.80
-35.56
-5.09
15.90
24.00
18.54
1.67
-21.72
-44.30
-57.69
-54.62
-31.55
9.30
59.54
106.45
136.94
142.08
120.60
79.33
30.74
-11.60
-37.40
-42.34
-28.06
-0.28
33.78
67.23
94.01
108.80
107.22
86.77
48.37
-2.60
-56.64
-102.24
-129.46
-133.38
-116.04
-85.83
-54.33
-31.98
-24.38
-30.95
-46.12
-62.42
-73.53
-75.96
-68.92
-52.99
-29.07
1.65
36.55
70.47
95.93
105.16
93.18
60.57
14.20
-34.65
-73.98
-95.05
-94.76
-75.84
-44.97
-10.20
21.23
43.80
53.77
49.03
29.26
-3.36
-43.76
-84.33
-116.49
-132.94
-129.88
-108.38
-74.18
-36.03
-3.25
16.98
21.31
10.85
-9.53
-33.37
-54.98
-71.03
-81.01
-86.35
-88.84
-89.40
-88.00
-84.33
-79.52
-76.88
-81.16
-96.34
-123.26
-158.59
-195.82
-228.22
-251.12
-263.95
-269.57
-271.66
-271.92
-268.70
-257.75
-234.57
-197.07
-145.21
-82.50
-14.73
51.65
111.15
160.08
196.55
220.09
230.93
233.24
231.51
229.82
231.47
238.96
253.80
275.78
302.67
330.16
358.65
388.95
421.59
456.17
491.52
525.94
557.24
583.00
600.04
612.29
622.97
632.54
638.02
634.87
619.95
593.31
558.42
486.44
366.67
207.38
34.40
-123.32
-248.35
-337.94
-398.45
-432.85
-452.33
-458.27
-450.12
-428.69
-397.59
-361.67
-324.40
-290.39
-260.85
-236.99
-214.30
-189.78
-163.28
-137.52
-116.20
-101.80
-94.82
-93.58
-96.61
-98.86
-96.82
-89.60
-79.00
-68.16
-60.01
-56.41
-57.74
-64.15
-73.31
-82.87
-91.06
-96.83
-99.53
-98.63
-93.83
-85.07
-73.32
-59.49
-45.03
-31.77
-21.60
-15.95
-15.26
-18.86
-24.97
-31.48
-36.20
-37.54
-34.89
-28.69
-20.27
-11.32
-3.36
2.72
6.82
9.72
12.68
17.02
23.47
31.83
40.92
49.14
55.01
57.79
57.63
55.31
51.67
47.18
41.63
34.40
24.86
12.94
-0.65
-14.47
-26.69
-35.76
-40.59
-40.89
-37.15
-30.38
-21.88
-13.11
-5.50
-0.37
1.19
-1.21
-7.07
-14.87
-22.32
-26.96
-26.96
-21.64
-11.86
0.34
12.35
21.81
27.19
28.06
25.00
19.17
11.95
4.57
-2.05
-7.33
-10.94
-12.67
-12.42
-10.12
-6.00
-0.65
4.95
9.68
12.52
12.95
11.16
8.05
4.90
2.92
2.88
4.93
8.73
13.50
18.25
22.09
24.32
24.59
22.85
19.50
15.36
11.73
9.72
10.12
13.15
18.60
25.91
34.18
42.42
49.79
55.86
59.98
61.60
60.51
57.37
53.67
51.02
50.69
53.27
58.78
65.74
71.96
75.39
75.19
71.90
66.60
60.17
53.15
45.80
36.84
23.91
4.25
-24.23
-62.70
-111.88
-172.08
-242.47
-311.30
-362.21
-380.99
-364.30
-320.59
-263.12
-203.32
-148.15
-100.34
-59.74
-26.30
-0.70
16.18
24.53
26.18
23.88
20.34
17.83
17.98
20.54
23.95
26.03
25.51
22.38
17.51
11.96
6.94
3.78
3.04
4.61
7.77
11.88
16.66
22.16
28.23
34.63
41.08
46.87
51.19
53.28
53.41
52.99
53.79
56.56
60.42
63.20
62.44
57.29
49.01
40.55
35.08
34.20
37.10
41.16
43.50
42.48
38.41
32.98
27.77
23.35
19.14
14.46
9.21
4.33
1.44
2.29
7.99
17.96
30.13
41.17
47.97
48.46
42.08
29.69
11.99
-8.47
-28.66
-45.59
-57.16
-62.10
-59.94
-50.91
-35.68
-15.41
8.23
32.47
53.78
68.42
73.57
68.37
54.22
34.44
13.12
-5.94
-20.38
-29.22
-32.58
-31.16
-25.82
-17.49
-6.99
4.90
17.61
30.52
42.66
52.71
58.96
59.84
54.45
43.01
26.95
8.52
-9.81
-25.98
-38.60
-47.13
-51.54
-52.38
-50.42
-46.77
-42.81
-39.92
-39.13
-40.61
-43.64
-46.57
-47.61
-45.31
-39.14
-29.56
-17.81
-5.54
5.63
14.19
19.11
19.81
16.28
9.03
-0.84
-12.05
-23.22
-33.16
-41.14
-46.81
-50.21
-51.54
-51.00
-48.70
-44.72
-39.29
-32.93
-26.55
-21.11
-17.35
-15.34
-14.38
-13.36
-11.10
-6.86
-0.51
7.44
16.07
24.22
30.67
34.42
34.89
32.00
26.30
18.80
10.42
1.78
-7.17
-16.97
-28.26
-41.32
-55.83
-70.69
-84.32
-95.17
-102.18
-105.20
-105.19
-103.79
-102.94
-104.14
-107.96
-113.75
-119.80
-123.80
-123.35
-116.71
-103.01
-82.40
-55.74
-24.15
11.31
49.59
89.42
128.89
165.33
195.76
217.59
229.37
231.21
224.59
211.74
194.88
175.78
155.60
135.22
115.74
98.63
85.76
79.01
79.67
88.17
103.81
124.89
149.32
175.21
200.99
225.54
247.87
266.51
279.51
285.04
281.70
269.11
247.85
218.38
180.29
132.54
74.36
6.40
-68.04
-143.74
-214.62
-275.34
-323.04
-357.97
-382.08
-397.16
-404.33
-404.01
-398.17
-390.93
-387.31
-391.18
-403.86
-421.67
-436.34
-438.65
-421.25
-382.52
-325.74
-255.99
-176.83
-90.41
3.42
105.46
213.85
324.63
426.77
498.75
523.04
498.79
436.35
348.95
254.09
155.65
58.75
-29.75
-103.15
-159.13
-191.07
-200.86
-196.51
-187.40
-180.85
-176.70
-169.08
-138.89
-76.92
10.21
101.03
173.35
215.70
227.99
218.59
197.30
171.29
142.86
113.24
83.46
55.31
32.60
17.34
8.49
0.78
-13.57
-42.59
-88.99
-144.06
-194.14
-225.01
-228.84
-206.68
-166.76
-119.96
-75.99
-39.50
-10.87
11.22
28.27
40.92
49.86
56.98
64.78
75.06
88.67
104.40
118.92
128.41
130.03
122.99
108.96
91.47
74.47
61.41
54.40
53.71
56.91
61.27
63.67
61.44
53.30
39.74
23.01
6.35
-7.08
-14.97
-16.35
-11.91
-3.46
6.67
16.40
24.25
29.47
31.88
31.64
29.16
24.77
18.71
11.19
2.46
-7.27
-17.88
-29.43
-42.03
-55.72
-70.43
-85.92
-101.75
-117.36
-132.17
-145.67
-157.48
-167.31
-174.87
-179.88
-181.84
-180.05
-173.65
-161.84
-143.98
-119.57
-88.23
-49.36
-2.49
52.63
115.31
183.40
252.93
318.58
374.68
416.28
440.43
446.38
435.54
410.65
374.96
331.61
283.39
232.73
181.64
131.63
83.51
37.30
-7.61
-52.05
-96.27
-139.55
-180.36
-217.20
-249.52
-278.14
-304.70
-330.36
-354.86
-375.97
-390.06
-393.39
-383.31
-358.68
-320.01
-269.17
-209.22
-145.09
-83.06
-29.61
10.54
36.27
50.65
59.58
69.36
84.06
103.68
124.71
142.47
153.59
157.42
155.58
150.70
145.10
140.27
136.21
132.17
127.87
124.14
122.34
122.76
123.98
123.61
119.64
110.35
95.17
75.46
54.33
35.30
20.43
10.24
5.00
5.55
11.34
19.14
23.16
16.41
-7.35
-51.86
-116.36
-195.06
-269.10
-315.15
-318.72
-284.55
-231.03
-175.83
-128.26
-89.48
-56.11
-23.86
8.75
40.07
67.19
87.86
102.19
111.86
119.16
125.50
130.69
132.89
130.34
123.08
112.20
98.94
82.54
59.74
26.55
-19.09
-76.02
-140.23
-196.67
-231.00
-236.62
-216.91
-181.28
-139.21
-96.74
-56.46
-19.58
12.08
35.92
51.13
60.10
67.87
80.73
103.75
138.95
184.94
233.12
271.55
289.81
282.43
249.67
197.47
135.80
76.55
29.61
-1.89
-19.35
-24.93
-20.05
-6.25
14.60
39.60
65.06
85.15
90.04
70.82
25.51
-40.40
-117.93
-197.87
-272.87
-337.95
-367.56
-346.20
-281.08
-195.17
-107.62
-26.71
46.42
108.73
163.72
208.77
235.13
236.94
216.62
183.59
146.79
114.33
90.40
75.63
66.62
55.60
37.43
12.78
-13.91
-39.17
-61.44
-80.21
-94.13
-102.64
-110.36
-123.36
-146.29
-181.38
-227.57
-277.63
-319.07
-338.67
-329.49
-298.45
-259.07
-223.54
-198.15
-182.51
-170.32
-152.72
-122.57
-59.71
32.12
126.18
194.25
226.30
228.91
215.90
200.58
190.47
185.67
176.91
155.10
118.01
70.83
22.35
-18.60
-46.22
-59.19
-59.67
-53.10
-42.15
-25.48
-1.27
28.95
59.86
84.99
99.96
104.08
98.95
88.46
77.02
67.19
59.11
51.34
42.75
33.16
22.53
10.20
-3.86
-18.34
-31.94
-43.32
-52.99
-63.53
-78.53
-100.24
-126.96
-151.56
-162.17
-150.44
-114.86
-62.81
-7.76
37.07
64.59
76.14
78.99
80.93
85.70
92.48
98.02
100.16
99.33
97.30
94.70
89.39
77.28
55.39
24.86
-8.89
-38.20
-56.72
-61.99
-55.87
-42.98
-28.16
-14.48
-2.41
9.86
24.65
43.49
65.89
88.83
107.44
116.79
113.94
99.57
77.43
53.00
31.05
13.83
0.84
-9.86
-19.85
-29.08
-35.64
-37.52
-33.98
-26.60
-19.03
-15.64
-19.41
-30.54
-46.43
-62.75
-75.71
-83.24
-85.44
-83.81
-79.84
-74.06
-65.80
-53.65
-36.55
-14.71
10.18
35.16
56.80
72.29
80.14
80.21
73.39
60.58
42.16
18.49
-9.39
-38.85
-65.69
-85.35
-94.60
-93.16
-84.01
-72.31
-62.87
-58.13
-57.23
-56.48
-51.25
-37.81
-14.72
17.27
54.07
90.15
120.07
139.89
148.06
145.24
133.62
115.86
94.18
69.94
43.99
16.69
-11.65
-40.46
-68.62
-94.41
-115.76
-130.78
-138.26
-137.99
-131.05
-119.28
-104.39
-87.08
-66.98
-43.10
-14.70
18.57
55.91
94.75
131.28
161.86
184.10
197.33
202.40
201.09
196.74
192.63
189.94
187.43
182.77
173.37
156.95
131.61
95.76
50.47
-1.57
-58.39
-118.56
-179.59
-237.68
-288.56
-329.02
-357.77
-372.05
-368.01
-342.96
-295.70
-225.90
-135.16
-28.53
87.74
187.82
246.26
258.79
239.58
205.64
168.14
131.33
95.27
59.00
22.32
-11.24
-36.32
-50.50
-55.84
-56.46
-57.08
-62.65
-77.16
-102.95
-137.46
-173.41
-203.16
-221.31
-226.12
-219.37
-205.28
-188.05
-164.77
-133.13
-90.26
-36.18
24.44
83.43
132.13
164.52
179.26
179.36
170.02
156.66
142.11
126.35
108.37
88.05
67.05
48.07
33.87
25.69
23.87
27.24
33.89
41.75
49.37
56.16
62.06
67.38
71.87
75.22
76.83
76.10
72.79
67.30
60.73
54.44
49.70
46.87
45.66
45.10
44.01
41.35
36.60
29.78
21.35
12.05
2.71
-5.86
-12.94
-18.12
-21.36
-22.97
-23.55
-23.65
-23.57
-23.26
-22.37
-20.57
-17.73
-14.09
-9.98
-5.77
-1.63
2.50
6.67
10.66
13.95
15.86
15.82
13.78
10.29
6.31
3.00
1.20
1.27
3.05
6.04
9.55
12.93
15.50
16.62
15.76
12.52
6.76
-1.30
-11.09
-21.85
-32.69
-42.86
-51.84
-59.39
-65.48
-70.17
-73.42
-75.06
-74.78
-72.35
-67.78
-61.42
-53.87
-45.90
-38.19
-31.35
-25.91
-22.34
-21.02
-22.09
-25.32
-30.02
-35.22
-39.86
-43.04
-44.24
-43.23
-40.01
-34.79
-27.94
-20.02
-11.89
-4.44
1.47
5.30
6.99
6.92
5.74
4.17
2.82
2.13
2.38
3.80
6.54
10.67
16.19
23.03
31.00
39.88
49.31
58.81
67.69
75.10
80.11
81.95
80.15
74.57
65.46
53.37
39.03
23.32
7.07
-8.98
-24.15
-37.89
-49.68
-58.99
-65.36
-68.51
-68.43
-65.44
-60.14
-53.37
-45.96
-38.71
-32.24
-26.92
-22.93
-20.16
-18.27
-16.80
-15.24
-13.17
-10.36
-6.69
-2.15
3.15
9.10
15.47
21.92
28.07
33.55
38.12
41.71
44.37
46.05
46.59
45.61
42.63
37.37
29.88
20.70
10.76
1.26
-6.64
-11.96
-14.22
-13.47
-10.27
-5.57
-0.38
4.46
8.52
11.69
14.16
16.16
17.86
19.31
20.46
21.29
21.76
21.88
21.58
20.87
19.79
18.46
17.17
16.19
15.70
15.70
16.02
16.37
16.47
16.17
15.37
14.04
12.14
9.61
6.48
2.97
-0.59
-3.82
-6.44
-8.37
-9.64
-10.37
-10.62
-10.45
-9.91
-9.11
-8.28
-7.59
-7.22
-7.20
-7.49
-7.94
-8.44
-8.90
-9.27
-9.54
-9.69
-9.75
-9.70
-9.52
-9.18
-8.63
-7.81
-6.74
-5.50
-4.13
-2.80
-1.58
-0.61
0.01
0.20
-0.04
-0.69
-1.62
-2.66
-3.67
-4.54
-5.23
-5.73
-6.02
-6.02
-5.59
-4.60
-3.01
-0.95
1.30
3.41
5.07
6.17
6.69
6.76
6.48
5.98
5.25
4.31
3.24
2.15
1.19
0.42
-0.19
-0.73
-1.24
-1.63
-1.71
-1.28
-0.17
1.57
3.73
5.96
7.95
9.42
10.25
10.42
9.94
8.83
7.11
4.90
2.31
-0.49
-3.23
-5.66
-7.50
-8.54
-8.77
-8.30
-7.42
-6.43
-5.58
-4.90
-4.37
-3.91
-3.52
-3.30
-3.40
-3.86
-4.59
-5.35
-5.90
-6.10
-6.02
-5.90
-5.87
-5.95
-5.99
-5.73
-5.02
-3.88
-2.55
-1.27
-0.18
0.75
1.71
2.86
4.24
5.62
6.58
6.67
5.53
3.12
-0.27
-4.06
-7.55
-10.12
-11.41
-11.45
-10.54
-9.13
-7.61
-6.29
-5.30
-4.62
-4.20
-3.94
-3.80
-3.76
-3.86
-4.16
-4.77
-5.82
-7.38
-9.48
-12.08
-15.10
-18.40
-21.76
-24.84
-27.22
-28.59
-28.76
-27.83
-26.06
-23.78
-21.16
-18.21
-14.75
-10.64
-5.91
-0.90
3.94
8.18
11.64
14.41
16.74
18.78
20.50
21.65
21.90
21.15
19.58
17.65
15.85
14.59
14.07
14.34
15.45
17.38
20.07
23.14
25.95
27.69
27.65
25.60
21.85
17.18
12.49
8.55
5.73
4.05
3.31
3.24
3.65
4.42
5.51
6.93
8.66
10.68
12.97
15.51
18.19
20.87
23.29
25.15
26.22
26.38
25.75
24.65
23.45
22.38
21.52
20.71
19.75
18.48
16.86
14.92
12.72
10.33
7.80
5.15
2.47
-0.12
-2.51
-4.74
-6.86
-9.03
-11.39
-13.98
-16.73
-19.51
-22.10
-24.31
-26.07
-27.33
-28.05
-28.18
-27.60
-26.16
-23.82
-20.67
-16.93
-12.94
-9.05
-5.57
-2.71
-0.60
0.71
1.20
0.97
0.20
-0.93
-2.22
-3.54
-4.79
-5.87
-6.68
-7.06
-6.86
-6.02
-4.56
-2.63
-0.49
1.58
3.29
4.45
4.98
4.97
4.66
4.35
4.27
4.45
4.60
4.16
2.44
-1.19
-6.97
-14.63
-23.37
-32.00
-39.27
-44.16
-46.18
-45.49
-42.75
-38.93
-34.92
-31.23
-27.86
-24.41
-20.29
-15.11
-8.77
-1.56
6.01
13.29
19.63
24.42
27.16
27.66
26.22
23.62
21.03
19.46
19.46
20.81
22.82
24.64
25.74
26.08
25.93
25.65
25.27
24.44
22.60
19.29
14.41
8.35
1.78
-4.64
-10.44
-15.49
-19.86
-23.63
-26.80
-29.22
-30.68
-31.16
-30.85
-30.14
-29.36
-28.66
-27.90
-26.85
-25.33
-23.39
-21.32
-19.48
-18.10
-17.04
-15.77
-13.53
-9.63
-3.81
3.62
11.79
19.50
25.68
29.66
31.30
30.93
29.14
26.48
23.32
19.84
16.10
12.19
8.25
4.50
1.12
-1.84
-4.44
-6.77
-8.87
-10.58
-11.57
-11.54
-10.35
-8.15
-5.50
-3.11
-1.68
-1.68
-3.22
-5.98
-9.36
-12.57
-14.87
-15.78
-15.16
-13.27
-10.64
-7.81
-5.18
-2.82
-0.46
2.36
6.05
10.85
16.65
23.04
29.33
34.75
38.63
40.71
41.19
40.75
40.33
40.72
42.34
45.13
48.57
51.99
54.82
56.68
57.43
57.10
55.73
53.35
49.98
45.63
