1579728317.00
64.000000
-0.00
-0.00
-0.00
-0.00
-0.00
-0.00
-0.00
-0.00
-0.00
-0.00
0.00
0.01
0.01
-0.00
-0.03
-0.05
-0.05
0.00
0.13
0.36
0.66
1.01
1.37
1.72
2.06
2.40
2.79
3.24
3.80
4.42
5.06
5.66
6.20
6.68
7.15
7.68
8.31
9.14
10.09
11.04
11.88
12.56
13.14
13.76
14.65
15.96
17.91
20.32
22.90
25.38
27.58
29.57
31.68
34.32
37.81
42.54
48.15
54.10
59.83
64.97
69.58
74.14
79.34
85.71
93.76
103.00
112.62
121.73
129.77
136.75
143.30
150.75
157.77
166.64
177.95
191.79
206.97
220.57
228.25
225.36
208.53
176.87
132.76
80.05
23.07
-34.94
-92.44
-149.16
-205.23
-260.37
-313.74
-363.87
-409.83
-450.91
-486.50
-515.74
-537.23
-549.22
-549.96
-538.37
-514.21
-478.67
-433.88
-382.44
-327.00
-269.81
-212.58
-156.59
-102.85
-52.24
-5.73
35.80
71.70
101.68
125.89
144.82
159.20
169.72
177.00
181.45
183.34
182.91
180.43
176.24
170.75
164.37
157.45
150.23
142.85
135.39
127.89
120.39
112.95
105.65
98.56
91.72
85.18
78.95
73.04
67.47
62.23
57.35
52.83
48.68
44.89
41.46
38.38
35.64
33.25
31.19
29.46
28.06
26.98
26.21
25.73
25.54
25.64
26.00
26.62
27.47
28.51
29.68
30.90
32.07
33.03
33.64
33.72
33.11
31.70
29.40
26.20
22.16
17.35
11.96
6.24
0.44
-5.16
-10.32
-14.82
-18.50
-21.26
-23.08
-23.99
-24.08
-23.46
-22.29
-20.70
-18.83
-16.78
-14.62
-12.42
-10.18
-7.93
-5.68
-3.43
-1.17
1.13
3.48
5.91
8.44
11.11
13.87
16.70
19.59
22.53
25.53
28.63
31.85
35.25
38.93
42.79
46.81
50.97
55.28
59.76
64.44
69.35
74.56
80.17
85.99
91.92
97.90
103.88
109.85
115.80
121.75
127.75
133.87
139.80
145.30
150.17
154.15
156.94
158.14
157.19
153.26
147.89
141.61
134.76
127.56
120.18
112.76
105.40
98.24
91.43
85.14
79.19
73.49
67.97
62.59
57.33
52.19
47.20
42.47
38.15
34.11
30.30
26.65
23.13
19.71
16.34
13.08
10.00
7.23
4.73
2.47
0.41
-1.55
-3.51
-5.55
-7.69
-9.84
-11.86
-13.67
-15.25
-16.69
-18.19
-20.02
-22.36
-25.26
-28.53
-31.87
-34.97
-37.70
-40.19
-42.87
-46.26
-50.80
-56.59
-63.32
-70.40
-77.19
-83.37
-89.10
-95.03
-102.02
-110.78
-121.50
-133.76
-146.74
-159.58
-171.74
-183.26
-194.72
-207.02
-221.27
-238.60
-259.82
-284.93
-312.34
-338.72
-359.46
-370.03
-367.68
-352.56
-327.73
-297.85
-267.40
-239.18
-213.92
-190.93
-169.28
-148.64
-129.42
-112.26
-97.40
-84.35
-72.22
-60.22
-48.18
-36.60
-26.58
-19.16
-14.86
-13.39
-13.81
-14.87
-15.52
-15.26
-14.25
-13.18
-12.88
-14.13
-17.40
-22.78
-29.96
-38.07
-45.75
-51.16
-52.40
-48.06
-37.66
-21.94
-2.70
17.71
37.07
53.80
67.18
77.15
84.01
88.12
89.74
89.11
86.62
82.87
78.63
74.68
71.59
69.57
68.41
67.65
66.76
65.32
63.13
60.23
56.74
52.89
48.79
44.48
39.90
34.91
29.41
23.37
16.92
10.31
3.86
-2.16
-7.62
-12.54
-17.14
-21.79
-27.03
-33.42
-41.40
-50.99
-61.44
-71.13
-77.77
-79.06
-73.48
-60.91
-42.77
-21.56
-0.12
19.26
35.19
47.27
55.74
61.07
63.73
64.16
62.89
60.60
58.04
55.89
54.51
53.88
53.67
53.42
52.73
51.52
49.96
48.40
47.12
46.14
45.14
43.62
41.10
37.37
32.63
27.43
22.46
18.27
15.07
12.59
10.25
7.36
3.52
-1.29
-6.62
-11.83
-16.31
-19.83
-22.61
-25.35
-28.92
-34.17
-41.55
-50.84
-60.98
-70.14
-76.07
-76.70
-70.80
-58.46
-41.10
-21.07
-0.93
17.20
32.04
43.18
50.85
55.54
57.82
58.15
57.03
55.01
52.70
50.69
49.43
49.09
49.50
50.25
50.91
51.20
51.07
50.70
50.31
49.95
49.41
48.25
46.02
42.46
37.68
32.19
26.76
22.09
18.53
15.93
13.66
10.94
7.15
2.16
-3.66
-9.60
-14.97
-19.42
-22.99
-26.12
-29.40
-33.40
-38.64
-45.37
-53.52
-62.40
-70.59
-76.12
-76.95
-71.69
-60.19
-43.75
-24.78
-5.97
10.40
23.04
31.66
36.72
38.94
38.98
37.38
34.63
31.26
27.90
25.14
23.43
22.92
23.52
24.89
26.61
28.31
29.72
30.62
30.86
30.33
28.92
26.62
23.48
19.72
15.60
11.43
7.40
3.59
-0.12
-3.92
-7.99
-12.38
-16.91
-21.29
-25.20
-28.52
-31.46
-34.57
-38.60
-44.18
-51.46
-59.72
-67.37
-72.28
-72.40
-66.46
-54.56
-38.09
-19.34
-0.75
15.72
28.96
38.62
44.91
48.25
49.10
47.99
45.48
42.29
39.13
36.67
35.36
35.32
36.29
37.70
38.85
39.15
38.37
36.66
34.51
32.38
30.52
28.72
26.50
23.32
18.83
13.09
6.51
-0.30
-6.80
-12.57
-17.51
-21.71
-25.46
-29.21
-33.46
-38.77
-45.46
-53.50
-62.15
-69.98
-75.08
-75.58
-70.32
-59.30
-43.82
-26.03
-8.34
7.33
19.87
29.05
35.16
38.71
40.16
39.93
38.42
36.05
33.32
30.65
28.38
26.70
25.70
25.33
25.44
25.75
25.90
25.51
24.32
22.26
19.45
16.12
12.48
8.69
4.76
0.63
-3.77
-8.42
-13.30
-18.26
-23.17
-27.87
-32.18
-35.98
-39.23
-42.08
-44.88
-48.15
-52.39
-57.79
-63.94
-69.70
-73.33
-73.06
-67.71
-57.15
-42.48
-25.66
-8.91
5.94
17.87
26.68
32.73
36.61
38.80
39.65
39.39
38.31
36.76
35.15
33.84
33.05
32.84
33.05
33.45
33.83
34.10
34.24
34.21
33.86
32.90
31.00
27.98
23.97
19.39
14.83
10.78
7.46
4.66
1.89
-1.37
-5.43
-10.20
-15.27
-20.09
-24.24
-27.63
-30.56
-33.66
-37.65
-43.09
-50.20
-58.50
-66.85
-73.45
-76.31
-73.79
-65.25
-51.36
-34.03
-15.78
0.99
14.61
24.46
30.72
33.98
34.84
33.79
31.23
27.68
23.82
20.38
17.95
16.77
16.69
17.31
18.14
18.84
19.23
19.28
18.90
17.94
16.10
13.19
9.19
4.37
-0.82
-5.94
-10.74
-15.25
-19.75
-24.45
-29.40
-34.39
-39.09
-43.18
-46.58
-49.42
-52.06
-54.92
-58.41
-62.79
-68.06
-73.74
-78.81
-81.79
-81.17
-75.92
-65.97
-52.32
-36.71
-21.07
-6.86
5.23
15.13
23.07
29.14
33.12
34.59
33.30
29.50
24.13
18.67
14.74
13.59
15.71
20.77
27.70
35.18
41.88
46.72
48.94
47.93
43.22
34.70
22.84
9.03
-4.57
-15.59
-22.28
-24.22
-22.56
-19.54
-17.69
-18.92
-24.00
-32.49
-42.89
-53.00
-60.15
-61.65
-55.21
-39.65
-15.41
15.32
49.12
82.13
111.14
134.22
150.92
162.05
169.11
173.78
177.54
181.40
185.87
190.99
196.44
201.58
205.73
208.20
208.59
206.85
203.30
198.44
192.72
186.30
179.13
171.11
162.37
153.39
144.90
137.57
131.70
127.00
122.70
117.70
110.84
101.08
87.55
69.67
47.36
21.28
-6.89
-34.49
-58.25
-75.02
-82.71
-80.99
-71.46
-57.28
-42.25
-29.87
-22.51
-21.09
-25.21
-33.70
-45.14
-58.37
-72.58
-87.15
-101.40
-114.45
-125.24
-132.85
-136.86
-137.60
-136.06
-133.50
-130.94
-128.85
-127.16
-125.55
-123.76
-121.85
-120.09
-118.74
-117.88
-117.32
-116.71
-115.77
-114.32
-112.35
-109.88
-106.88
-103.23
-98.76
-93.36
-87.09
-80.19
-72.99
-65.74
-58.51
-51.14
-43.34
-34.86
-25.63
-15.82
-5.82
3.84
12.51
19.38
23.65
24.57
21.76
15.43
6.44
-3.94
-14.30
-23.54
-31.02
-36.57
-40.33
-42.57
-43.61
-43.76
-43.39
-42.86
-42.58
-42.84
-43.91
-45.86
-48.65
-52.05
-55.69
-59.12
-62.04
-64.37
-66.33
-68.39
-71.09
-74.93
-80.17
-86.68
-93.74
-99.96
-103.45
-102.15
-94.50
-80.10
-59.89
-36.03
-11.22
12.13
32.41
48.86
61.44
70.38
76.00
78.75
79.32
78.63
77.69
77.30
77.75
78.83
79.98
80.60
80.37
79.37
77.93
76.46
75.14
73.81
72.02
69.18
64.87
58.99
51.82
43.86
35.59
27.16
18.34
8.56
-2.89
-16.54
-32.37
-49.51
-66.24
-80.15
-88.65
-89.65
-82.24
-67.02
-46.07
-22.37
0.98
21.47
37.62
48.99
55.89
58.94
58.88
56.48
52.55
47.91
43.32
39.36
36.24
33.82
31.77
29.70
27.45
25.05
22.72
20.59
18.60
16.43
13.56
9.50
4.04
-2.65
-10.08
-17.49
-24.29
-30.14
-35.13
-39.76
-44.78
-50.91
-58.62
-67.84
-77.72
-86.63
-92.42
-92.91
-86.57
-73.11
-53.73
-30.81
-7.34
13.98
31.31
43.91
51.97
56.19
57.38
56.28
53.57
49.92
46.12
42.86
40.66
39.64
39.57
40.03
40.55
40.86
40.82
40.35
39.37
37.72
35.28
32.04
28.20
23.98
19.57
15.02
10.18
4.90
-0.91
-7.16
-13.60
-19.88
-25.69
-30.84
-35.32
-39.36
-43.42
-48.14
-54.16
-61.79
-70.68
-79.62
-86.60
-89.25
-85.57
-74.60
-56.97
-34.73
-10.88
11.56
30.30
44.24
53.34
58.20
59.63
58.33
55.01
50.47
45.62
41.41
38.57
37.30
37.31
37.99
38.76
39.28
39.51
39.47
39.14
38.25
36.42
33.41
29.24
24.30
19.20
14.41
10.17
6.33
2.47
-1.82
-6.81
-12.42
-18.33
-24.07
-29.22
-33.53
-37.04
-40.08
-43.25
-47.28
-52.84
-60.22
-69.02
-77.97
-84.98
-87.68
-84.11
-73.42
-56.23
-34.55
-11.13
11.26
30.47
45.32
55.52
61.39
63.57
62.75
59.66
55.02
49.63
44.27
39.71
36.47
34.80
34.49
34.99
35.59
35.60
34.66
32.72
30.04
26.92
23.59
20.06
16.14
11.56
6.20
0.06
-6.61
-13.43
-20.00
-26.05
-31.50
-36.49
-41.31
-46.32
-51.99
-58.73
-66.83
-76.15
-85.83
-94.20
-98.94
-97.78
-89.23
-73.34
-51.70
-27.09
-2.62
19.18
36.74
49.53
57.75
61.93
62.70
60.79
57.01
52.24
47.37
43.13
39.97
38.01
37.10
36.90
36.92
36.68
35.80
34.07
31.51
28.28
24.64
20.72
16.51
11.82
6.43
0.23
-6.69
-14.04
-21.46
-28.62
-35.36
-41.63
-47.48
-52.97
-58.18
-63.42
-69.13
-75.77
-83.37
-91.18
-97.47
-99.86
-96.16
-85.16
-67.27
-44.45
-19.60
4.38
25.29
42.03
54.41
62.79
67.67
69.55
68.88
66.20
62.25
57.87
53.86
50.81
48.90
47.95
47.48
46.89
45.67
43.58
40.65
37.14
33.32
29.37
25.22
20.61
15.19
8.68
1.08
-7.29
-15.85
-23.90
-31.00
-37.00
-42.18
-47.14
-52.60
-59.24
-67.54
-77.53
-88.62
-99.39
-107.68
-111.01
-107.30
-95.64
-76.74
-52.92
-27.32
-3.01
17.88
34.43
46.67
55.07
60.07
61.96
61.08
58.05
53.86
49.69
46.55
44.98
44.85
45.54
46.23
46.25
45.28
43.47
41.17
38.75
36.27
33.39
29.49
23.95
16.52
7.50
-2.26
-11.67
-19.88
-26.59
-32.11
-37.27
-43.07
-50.41
-59.80
-71.16
-83.54
-95.12
-103.41
-105.78
-100.35
-86.69
-66.10
-41.30
-15.59
8.15
28.14
43.73
55.16
62.98
67.67
69.53
68.83
66.03
61.87
57.32
53.37
50.78
49.79
50.08
50.85
51.19
50.39
48.22
45.00
41.27
37.54
33.95
30.21
25.83
20.39
13.86
6.60
-0.72
-7.44
-13.16
-17.90
-22.03
-26.18
-31.01
-37.16
-45.13
-55.05
-66.51
-78.25
-88.14
-93.54
-91.99
-82.13
-64.24
-40.37
-13.66
12.50
35.38
53.38
66.05
73.72
77.14
77.22
74.87
71.01
66.54
62.31
58.94
56.76
55.72
55.49
55.57
55.53
55.14
54.37
53.37
52.16
50.56
48.15
44.52
39.50
33.33
26.61
20.07
14.28
9.40
5.21
1.24
-2.96
-7.60
-12.56
-17.51
-22.01
-25.82
-29.05
-32.23
-36.15
-41.62
-48.93
-57.39
-65.18
-69.46
-67.17
-55.83
-34.52
-4.26
32.07
70.36
106.10
135.28
154.84
162.92
158.87
143.08
117.02
83.13
44.74
5.68
-30.34
-60.49
-83.41
-99.25
-109.13
-114.26
-115.29
-112.01
-103.75
-90.03
-71.04
-47.82
-21.91
4.90
30.74
53.57
71.33
82.26
85.56
81.78
72.90
61.71
50.79
41.77
34.92
29.48
24.31
18.57
12.01
4.96
-2.08
-8.75
-15.06
-21.40
-28.39
-36.53
-45.94
-56.03
-65.50
-72.57
-75.42
-72.71
-63.93
-49.64
-31.41
-11.57
7.05
21.58
29.78
30.67
24.95
14.95
3.97
-4.87
-9.64
-10.11
-7.37
-2.96
2.11
7.80
14.69
23.27
33.27
43.51
52.36
58.48
61.45
61.92
61.10
60.20
59.89
60.09
60.33
60.17
59.40
58.06
56.05
52.77
47.13
37.82
23.96
5.60
-16.09
-39.18
-61.66
-82.09
-99.94
-115.41
-128.84
-140.15
-148.60
-152.97
-152.20
-146.03
-135.32
-121.85
-107.69
-94.53
-83.28
-74.03
-66.38
-59.95
-54.44
-49.76
-45.76
-42.20
-38.59
-34.40
-29.20
-22.81
-15.31
-7.03
1.63
10.23
18.46
26.07
32.84
38.55
42.91
45.68
46.84
46.59
45.43
43.91
42.49
41.38
40.63
40.25
40.39
41.31
43.20
46.00
49.20
51.98
53.53
53.44
52.00
50.26
49.82
52.33
58.99
70.11
85.09
102.60
121.13
139.26
155.92
170.34
181.81
189.64
193.12
191.73
185.40
174.65
160.61
144.86
129.06
114.49
101.77
90.64
80.13
69.02
56.42
42.15
26.81
11.60
-2.14
-13.31
-21.31
-26.25
-29.00
-31.09
-34.52
-41.31
-52.99
-70.09
-91.84
-116.32
-140.97
-163.30
-181.43
-194.49
-202.53
-206.34
-207.19
-206.53
-205.73
-205.60
-205.98
-205.57
-202.18
-193.40
-177.72
-155.32
-128.33
-100.32
-75.14
-55.76
-43.42
-37.54
-36.18
-36.96
-37.99
-38.23
-37.61
-36.55
-35.41
-34.15
-32.19
-28.89
-23.93
-17.72
-11.25
-5.66
-1.64
0.68
1.56
1.09
-1.20
-6.21
-14.62
-26.27
-39.83
-53.16
-64.11
-71.24
-74.08
-72.89
-68.19
-60.35
-49.60
-36.33
-21.34
-5.90
8.56
20.88
30.54
37.73
43.19
47.92
52.86
58.59
65.11
71.89
78.00
82.58
85.23
86.14
85.96
85.32
84.52
83.46
81.92
79.86
77.61
75.67
74.43
73.77
73.14
71.82
69.35
65.69
61.22
56.43
51.68
47.08
42.55
37.87
32.77
26.96
20.09
11.89
2.27
-8.47
-19.55
-29.68
-37.10
-39.94
-36.73
-26.96
-11.49
7.48
26.98
44.12
56.90
64.68
68.02
68.21
66.47
63.55
59.60
54.44
47.96
40.49
32.84
26.06
21.02
18.04
16.89
16.94
17.55
18.32
19.12
19.90
20.42
20.24
18.79
15.64
10.72
4.30
-3.08
-10.77
-18.16
-24.80
-30.48
-35.25
-39.42
-43.57
-48.38
-54.48
-62.23
-71.55
-81.79
-91.79
-99.90
-104.31
-103.43
-96.36
-83.22
-65.22
-44.39
-23.07
-3.32
13.51
26.88
36.90
44.03
48.69
51.21
51.82
50.83
48.80
46.47
44.69
44.02
44.58
46.02
47.64
48.71
48.73
47.55
45.28
42.19
38.47
34.28
29.66
24.70
19.50
14.14
8.66
2.96
-3.02
-9.32
-15.80
-22.20
-28.21
-33.66
-38.60
-43.37
-48.56
-54.81
-62.55
-71.76
-81.68
-90.81
-97.12
-98.53
-93.52
-81.73
-64.12
-42.79
-20.43
0.38
17.74
30.76
39.49
44.62
47.13
47.88
47.50
46.35
44.71
42.81
40.98
39.54
38.63
38.21
38.04
37.87
37.49
36.89
36.02
34.76
32.75
29.55
24.85
18.68
11.55
4.27
-2.43
-8.20
-13.22
-18.11
-23.55
-29.93
-37.07
-44.35
-50.99
-56.39
-60.56
-64.03
-67.80
-72.96
-80.31
-89.98
-101.19
-112.21
-120.54
-123.58
-119.28
-106.90
-87.35
-63.00
-36.98
-12.30
8.87
25.55
37.71
45.86
50.68
52.88
53.21
52.48
51.58
51.21
51.73
53.02
54.69
56.21
57.16
57.32
56.71
55.48
53.82
51.91
49.87
47.77
45.56
43.07
40.08
36.47
32.30
27.79
23.26
18.97
14.92
10.87
6.46
1.33
-4.65
-11.27
-18.13
-24.74
-30.70
-35.83
-40.24
-44.33
-48.67
-53.98
-60.96
-70.00
-80.87
-92.43
-102.62
-108.84
-108.66
-100.67
-85.04
-63.54
-39.06
-14.73
6.97
24.62
37.95
47.40
53.73
57.56
59.29
59.23
57.75
55.36
52.74
50.51
49.07
48.43
48.34
48.37
48.21
47.76
47.13
46.48
45.88
45.20
44.14
42.34
39.56
35.70
30.91
25.52
19.95
14.63
9.88
5.86
2.47
-0.60
-3.79
-7.53
-12.01
-17.11
-22.45
-27.54
-32.02
-35.82
-39.20
-42.68
-46.82
-52.15
-58.95
-67.16
-76.14
-84.57
-90.49
-91.71
-86.49
-74.21
-55.82
-33.67
-10.80
9.94
26.69
38.81
46.67
50.99
52.50
51.69
48.96
44.93
40.45
36.54
34.01
33.22
33.91
35.44
37.04
38.17
38.59
38.38
37.70
36.64
35.16
33.10
30.28
26.54
21.84
16.35
10.47
4.72
-0.32
-4.30
-7.28
-9.71
-12.32
-15.76
-20.26
-25.56
-30.96
-35.73
-39.47
-42.29
-44.77
-47.73
-51.92
-57.85
-65.58
-74.61
-83.79
-91.31
-95.02
-92.93
-83.93
-68.31
-47.79
-25.12
-3.17
15.80
30.64
41.20
48.03
51.77
52.98
52.08
49.52
45.96
42.22
39.16
37.43
37.23
38.28
40.00
41.72
42.93
43.46
43.39
42.90
42.14
41.12
39.67
37.56
34.57
30.60
25.71
20.15
14.34
8.80
4.02
0.23
-2.61
-4.93
-7.30
-10.30
-14.17
-18.80
-23.76
-28.53
-32.80
-36.49
-39.94
-43.69
-48.34
-54.44
-62.19
-71.31
-80.80
-88.95
-93.62
-92.76
-85.13
-70.79
-51.26
-29.12
-7.27
11.88
26.86
37.38
43.91
47.32
48.47
48.00
46.36
43.92
41.13
38.51
36.60
35.75
36.00
37.07
38.42
39.57
40.18
40.20
39.74
38.99
38.02
36.71
34.86
32.25
28.82
24.68
20.16
15.65
11.52
8.01
5.12
2.63
0.09
-2.96
-6.88
-11.69
-17.11
-22.53
-27.30
-31.00
-33.63
-35.65
-37.85
-41.04
-45.88
-52.62
-61.02
-70.20
-78.68
-84.47
-85.50
-80.23
-68.21
-50.46
-29.19
-7.25
12.72
28.94
40.68
48.09
51.76
52.36
50.51
46.84
42.11
37.21
33.03
30.25
29.11
29.40
30.59
32.06
33.39
34.41
35.17
35.78
36.15
35.97
34.79
32.25
28.30
23.28
17.82
12.62
8.17
4.59
1.59
-1.37
-4.86
-9.26
-14.52
-20.23
-25.77
-30.60
-34.55
-37.89
-41.34
-45.71
-51.67
-59.32
-68.03
-76.41
-82.51
-84.30
-80.24
-69.76
-53.54
-33.40
-11.82
8.72
26.27
39.77
48.95
54.12
55.85
54.81
51.72
47.37
42.64
38.35
35.13
33.28
32.77
33.26
34.34
35.58
36.69
37.50
37.88
37.71
36.79
34.93
31.96
27.84
22.74
17.02
11.18
5.73
1.02
-2.89
-6.24
-9.49
-13.07
-17.20
-21.78
-26.42
-30.64
-34.11
-36.83
-39.15
-41.73
-45.33
-50.60
-57.81
-66.61
-75.79
-83.38
-86.98
-84.45
-74.76
-58.39
-37.44
-14.91
6.18
23.67
36.68
45.35
50.45
52.77
52.92
51.35
48.50
45.07
41.83
39.55
38.65
39.10
40.44
42.04
43.31
43.95
43.97
43.54
42.86
41.95
40.62
38.58
35.56
31.47
26.47
20.98
15.52
10.65
6.69
3.66
1.27
-1.04
-3.81
-7.37
-11.65
-16.22
-20.54
-24.17
-27.08
-29.52
-32.03
-35.17
-39.42
-45.09
-52.26
-60.63
-69.32
-76.71
-80.69
-79.23
-71.08
-56.45
-37.07
-15.73
4.67
21.92
34.92
43.65
48.62
50.49
49.80
47.03
42.82
37.96
33.39
29.87
27.76
27.00
27.20
27.93
28.89
29.98
31.19
32.45
33.48
33.85
33.11
30.99
27.56
23.20
18.49
13.95
9.86
6.22
2.80
-0.69
-4.47
-8.59
-12.91
-17.15
-21.02
-24.27
-26.92
-29.24
-31.78
-35.23
-40.22
-46.99
-55.18
-63.65
-70.53
-73.76
-71.54
-63.00
-48.58
-29.97
-9.70
9.59
25.84
37.96
45.77
49.80
50.79
49.47
46.44
42.27
37.53
32.87
28.94
26.22
24.95
25.01
26.00
27.38
28.59
29.26
29.18
28.36
26.79
24.53
21.54
17.82
13.46
8.69
3.80
-0.91
-5.30
-9.37
-13.25
-17.09
-20.93
-24.67
-28.16
-31.31
-34.26
-37.41
-41.44
-46.95
-54.12
-62.38
-70.20
-75.39
-75.73
-69.76
-57.34
-39.83
-19.64
0.47
18.20
32.13
41.86
47.66
50.22
50.33
48.71
46.04
42.91
39.75
36.88
34.46
32.58
31.28
30.58
30.44
30.75
31.21
31.51
31.31
30.43
28.80
26.49
23.57
20.12
16.19
11.85
7.22
2.43
-2.42
-7.28
-12.10
-16.78
-21.17
-25.14
-28.66
-31.93
-35.41
-39.74
-45.51
-53.05
-62.17
-72.00
-81.03
-87.29
-88.73
-83.80
-71.88
-53.60
-30.75
-5.88
18.28
39.44
56.00
67.24
73.06
73.91
70.57
64.24
56.38
48.74
42.93
40.09
40.52
43.55
47.83
51.80
54.25
54.60
52.96
49.80
45.69
41.01
35.99
30.76
25.52
20.51
15.99
12.07
8.68
5.67
2.84
0.07
-2.73
-5.62
-8.66
-11.95
-15.52
-19.33
-23.23
-27.11
-30.95
-34.88
-39.20
-44.22
-50.09
-56.53
-62.59
-66.83
-67.49
-63.15
-53.22
-38.32
-20.19
-1.17
16.41
30.83
41.11
47.03
48.78
46.76
41.50
33.65
24.06
13.78
3.90
-4.64
-11.20
-15.62
-18.11
-19.20
-19.49
-19.48
-19.44
-19.39
-19.20
-18.72
-17.88
-16.78
-15.60
-14.63
-14.15
-14.31
-15.11
-16.35
-17.64
-18.55
-18.72
-17.98
-16.46
-14.63
-13.14
-12.71
-13.92
-16.92
-21.28
-25.95
-29.40
-30.02
-26.56
-18.58
-6.64
7.76
22.64
36.11
46.91
54.67
59.86
63.45
66.43
69.51
72.94
76.55
80.00
83.00
85.40
87.21
88.58
89.66
90.61
91.56
92.48
93.11
92.82
90.82
86.38
79.18
69.55
58.41
47.01
36.46
27.56
20.61
15.61
12.31
10.19
8.38
5.69
0.74
-7.57
-19.71
-35.31
-53.19
-71.70
-89.07
-103.66
-114.11
-119.41
-119.11
-113.36
-103.04
-89.59
-74.74
-60.05
-46.69
-35.25
-25.90
-18.54
-12.96
-8.93
-6.09
-4.10
-2.53
-1.02
0.68
2.68
4.97
7.41
9.80
11.99
13.80
15.10
15.78
15.73
14.88
13.17
10.64
7.39
3.60
-0.56
-5.01
-9.75
-14.78
-20.08
-25.52
-30.90
-36.04
-40.82
-45.28
-49.52
-53.68
-57.98
-62.66
-68.01
-74.12
-80.64
-86.62
-90.52
-90.58
-85.48
-74.87
-59.64
-41.72
-23.37
-6.59
7.43
18.39
26.53
32.29
36.04
38.03
38.57
38.04
36.98
35.86
34.97
34.34
33.89
33.49
33.16
33.02
33.19
33.65
34.20
34.55
34.35
33.43
31.73
29.35
26.43
23.13
19.57
15.84
12.03
8.25
4.54
0.93
-2.64
-6.32
-10.30
-14.76
-19.85
-25.69
-32.39
-39.93
-48.01
-55.93
-62.57
-66.48
-66.35
-61.36
-51.63
-38.21
-22.91
-7.77
5.48
15.76
22.73
26.68
28.23
28.11
26.91
25.08
22.95
20.77
18.77
17.18
16.11
15.60
15.50
15.64
15.84
16.04
16.24
16.52
16.87
17.12
16.95
15.99
13.97
10.88
7.01
2.83
-1.13
-4.52
-7.28
-9.67
-12.18
-15.37
-19.70
-25.31
-31.90
-38.60
-44.08
-46.80
-45.48
-39.58
-29.52
-16.69
-2.95
9.91
20.64
28.70
34.10
37.06
37.77
36.38
33.12
28.47
23.14
17.93
13.47
10.06
7.61
5.81
4.30
2.85
1.37
-0.08
-1.46
-2.75
-4.10
-5.77
-8.10
-11.40
-15.75
-20.93
-26.46
-31.66
-36.02
-39.30
-41.66
-43.62
-45.84
-48.95
-53.30
-58.79
-64.76
-70.00
-72.96
-72.09
-66.42
-55.95
-41.77
-25.78
-10.08
3.65
14.51
22.40
27.72
30.99
32.61
32.85
31.90
29.97
27.35
24.43
21.56
19.11
17.31
16.29
15.99
16.16
16.48
16.63
16.46
15.92
14.98
13.54
11.31
8.04
3.60
-1.80
-7.69
-13.43
-18.54
-22.85
-26.59
-30.23
-34.37
-39.43
-45.52
-52.30
-58.92
-64.15
-66.56
-64.90
-58.47
-47.43
-32.86
-16.52
-0.47
13.51
24.23
31.31
34.99
35.97
35.03
33.02
30.73
28.95
28.39
29.52
32.35
36.38
40.63
44.05
45.85
45.80
44.23
41.75
39.00
36.23
33.33
29.93
25.73
20.74
15.35
10.19
5.85
2.63
0.42
-1.19
-2.67
-4.45
-6.85
-10.11
-14.36
-19.41
-24.61
-28.65
-29.88
-26.88
-19.11
-7.36
6.46
19.99
31.24
39.26
44.14
46.61
47.41
47.01
45.48
42.93
39.68
36.31
33.42
31.33
30.00
29.16
28.68
28.67
29.36
30.75
32.29
32.82
31.03
25.97
17.54
6.59
-5.44
-16.97
-26.78
-34.19
-39.02
-41.41
-41.80
-40.83
-39.40
-38.59
-39.39
-42.38
-47.36
-53.27
-58.34
-60.67
-58.75
-51.98
-40.83
-26.64
-11.22
3.65
16.61
26.82
34.00
38.28
40.05
39.81
38.13
35.57
32.65
29.87
27.61
26.14
25.57
25.80
26.58
27.62
28.64
29.47
30.02
30.21
29.91
28.81
26.59
22.99
18.02
12.04
5.65
-0.47
-5.81
-10.16
-13.67
-16.79
-20.13
-24.21
-29.37
-35.50
-41.98
-47.69
-51.19
-51.13
-46.70
-37.98
-25.94
-12.22
1.35
13.24
22.48
28.81
32.45
33.92
33.75
32.49
30.66
28.70
27.06
26.00
25.55
25.46
25.31
24.62
23.13
20.81
17.84
14.46
10.73
6.55
1.71
-3.85
-9.90
-15.99
-21.50
-26.01
-29.31
-31.56
-33.13
-34.53
-36.29
-38.81
-42.18
-45.99
-49.27
-50.63
-48.68
-42.66
-32.73
-20.13
-6.71
5.64
15.58
22.60
26.85
28.88
29.24
28.37
26.54
24.09
21.38
18.87
17.02
16.11
16.26
17.31
18.99
20.91
22.71
24.14
25.10
25.71
26.20
26.79
27.61
28.60
29.54
30.22
30.55
30.60
30.57
30.56
30.54
30.34
30.02
30.08
31.69
36.44
45.80
60.47
79.90
102.43
125.71
147.65
166.92
183.21
196.77
207.91
216.75
223.49
228.97
234.83
242.95
254.35
268.23
281.87
291.62
294.50
289.35
277.18
260.11
240.07
217.84
193.24
166.01
136.82
107.58
80.74
58.17
40.25
25.79
12.69
-1.01
-16.28
-32.91
-49.74
-65.23
-78.00
-86.95
-91.38
-90.85
-85.43
-75.71
-62.91
-48.60
-34.26
-20.93
-9.05
1.24
9.82
16.28
20.01
20.47
17.47
11.25
2.38
-8.59
-21.25
-35.27
-50.28
-65.68
-80.80
-95.09
-108.41
-121.03
-133.40
-145.80
-157.99
-169.19
-178.41
-184.76
-187.89
-188.07
-186.10
-182.94
-179.33
-175.58
-171.42
-166.23
-159.34
-150.35
-139.37
-127.04
-114.28
-101.99
-90.84
-81.18
-73.15
-66.84
-62.32
-59.62
-58.62
-58.94
-60.00
-61.14
-61.73
-61.32
-59.71
-56.93
-53.27
-49.19
-45.24
-41.86
-39.24
-37.35
-36.02
-35.23
-35.27
-36.68
-40.07
-45.84
-53.93
-63.86
-74.93
-86.30
-97.09
-106.28
-112.76
-115.52
-113.95
-108.24
-99.43
-89.20
-79.36
-71.32
-65.81
-62.86
-62.11
-62.97
-64.80
-66.94
-68.73
-69.55
-68.91
-66.57
-62.52
-56.96
-50.15
-42.39
-33.95
-25.24
-16.78
-9.32
-3.74
-0.86
-1.20
-4.71
-10.69
-17.95
-25.11
-31.08
-35.37
-38.15
-40.17
-42.32
-45.35
-49.51
-54.36
-58.80
-61.28
-60.23
-54.59
-44.18
-29.81
-13.05
4.29
20.67
35.14
47.36
57.35
65.29
71.28
75.43
77.93
79.05
79.16
78.69
77.99
77.38
77.21
77.69
78.88
80.59
82.31
83.41
83.28
81.59
78.30
73.62
67.85
61.27
54.14
46.78
39.59
33.04
27.52
23.13
19.64
16.51
13.13
9.12
4.51
-0.19
-4.14
-6.49
-6.72
-4.81
-1.28
3.03
7.23
10.58
12.65
13.22
12.25
9.79
6.00
1.12
-4.40
-10.03
-15.13
-19.09
-21.43
-21.90
-20.58
-17.81
-14.25
-10.57
-7.43
-5.21
-4.10
-4.04
-4.87
-6.48
-8.82
-11.89
-15.60
-19.78
-24.17
-28.49
-32.62
-36.59
-40.71
-45.35
-50.88
-57.43
-64.68
-71.80
-77.52
-80.40
-79.29
-73.67
-63.85
-50.97
-36.64
-22.50
-9.88
0.48
8.36
13.91
17.44
19.31
19.81
19.26
17.96
16.27
14.52
12.96
11.70
10.66
9.62
8.37
6.71
4.58
1.99
-1.04
-4.52
-8.53
-13.17
-18.48
-24.34
-30.52
-36.62
-42.32
-47.48
-52.30
-57.28
-62.90
-69.34
-76.06
-81.72
-84.48
-82.55
-74.89
-61.62
-44.07
-24.35
-4.68
13.10
27.89
39.25
47.26
52.15
54.30
54.21
52.55
50.24
48.23
47.33
47.97
50.13
53.36
56.99
60.37
63.06
64.83
65.73
65.89
65.39
64.13
61.75
57.70
51.58
43.23
33.01
21.66
10.09
-1.01
-11.43
-21.54
-32.03
-43.78
-57.44
-73.21
-90.53
-107.90
-123.02
-133.20
-136.14
-130.72
-117.38
-98.07
-75.53
-52.46
-30.81
-11.59
4.88
18.52
29.23
36.87
41.52
43.74
44.58
45.38
47.32
51.08
56.63
63.34
70.37
77.02
82.96
88.27
93.35
98.56
104.11
109.86
115.49
120.61
125.03
128.82
132.33
136.04
140.46
145.95
152.51
159.54
165.63
168.65
166.10
155.94
137.45
111.79
82.04
52.35
26.85
8.33
-2.30
-6.10
-5.40
-2.95
-1.12
-1.46
-4.61
-10.49
-18.47
-27.76
-37.63
-47.51
-57.09
-66.20
-74.63
-82.16
-88.47
-93.35
-96.72
-98.79
-99.90
-100.53
-101.05
-101.71
-102.69
-104.17
-106.48
-109.94
-114.62
-120.15
-125.58
-129.70
-131.41
-130.24
-126.52
-121.40
-116.26
-112.08
-108.94
-105.92
-101.57
-94.57
-84.39
-71.54
-57.36
-43.61
-31.86
-23.19
-17.99
-16.07
-16.87
-19.75
-24.19
-29.87
-36.52
-43.69
-50.57
-56.01
-58.87
-58.39
-54.56
-48.08
-39.90
-30.85
-21.44
-11.94
-2.62
5.98
13.17
18.42
21.61
23.18
23.87
24.36
24.92
25.28
24.81
22.85
19.04
13.44
6.40
-1.44
-9.27
-15.98
-20.12
-20.01
-14.15
-1.92
16.01
37.69
60.48
81.94
100.46
115.43
126.65
133.91
136.76
134.99
129.31
121.69
114.80
110.79
110.11
110.96
109.96
103.67
90.09
69.56
44.44
18.25
-5.62
-24.66
-37.55
-44.05
-44.61
-40.21
-32.04
-21.47
-9.73
2.22
13.75
24.53
34.34
43.06
50.71
57.70
64.98
74.02
86.29
102.58
122.32
143.45
162.97
178.04
187.18
190.75
190.50
188.56
186.36
184.16
181.33
176.93
170.26
160.87
148.20
131.19
108.40
78.61
41.72
-0.62
-45.21
-88.07
-125.72
-156.06
-178.93
-195.71
-208.63
-219.92
-231.24
-243.35
-256.11
-268.57
-279.04
-285.39
-285.54
-278.35
-264.29
-245.63
-225.79
-207.94
-193.66
-182.24
-171.23
-157.75
-140.06
-118.35
-94.36
-70.21
-47.10
-24.94
-3.21
17.85
36.28
48.80
52.20
45.02
28.61
7.09
-13.93
-28.93
-34.08
-28.07
-12.21
10.17
34.84
57.86
76.69
90.62
100.56
108.07
114.28
119.19
121.75
120.63
115.01
105.21
92.58
79.18
67.28
58.83
55.21
57.04
64.03
75.03
88.25
101.64
113.40
122.25
127.58
129.34
127.85
123.57
117.10
109.12
100.36
91.37
82.35
73.11
63.23
52.57
41.72
31.98
24.98
21.76
22.14
24.50
26.36
25.39
20.40
11.57
0.25
-11.97
-23.90
-35.17
-46.04
-57.09
-68.79
-81.23
-94.12
-106.64
-117.58
-125.36
-128.43
-125.68
-116.93
-103.11
-86.05
-68.02
-51.11
-36.76
-25.68
-17.88
-13.04
-10.66
-10.33
-11.63
-14.14
-17.27
-20.31
-22.53
-23.45
-22.90
-21.03
-18.10
-14.36
-9.93
-4.81
0.84
6.68
12.16
16.66
19.68
21.02
20.85
19.72
18.50
18.24
20.03
24.64
32.29
42.62
54.76
67.54
79.61
89.56
96.12
98.62
97.40
94.08
91.12
91.04
95.18
103.07
112.72
121.53
127.56
130.17
129.94
127.77
124.14
118.70
110.68
99.70
86.37
72.42
60.21
52.01
49.29
52.14
59.14
67.59
74.11
75.41
69.37
55.63
35.77
12.89
-9.35
-27.77
-40.41
-46.88
-48.26
-46.48
-43.79
-42.14
-42.76
-46.01
-51.65
-58.97
-67.14
-75.28
-82.36
-87.39
-89.60
-88.77
-85.53
-81.26
-77.58
-75.72
-75.99
-77.74
-79.84
-81.40
-82.32
-83.38
-85.83
-90.70
-98.20
-107.49
-116.85
-124.27
-128.14
-127.89
-124.12
-118.32
-112.20
-107.03
-103.25
-100.40
-97.58
-93.90
-88.84
-82.38
-74.87
-66.84
-58.79
-51.07
-43.75
-36.72
-29.69
-22.43
-15.03
-7.96
-1.95
2.43
5.20
7.21
9.98
15.23
24.33
37.81
55.19
74.75
93.63
107.95
113.56
107.09
87.22
55.68
17.00
-22.48
-56.74
-81.69
-96.09
-101.31
-100.13
-95.47
-89.59
-83.85
-78.92
-75.09
-72.26
-69.96
-67.43
-63.91
-59.19
-53.88
-49.41
-47.46
-49.18
-54.61
-62.65
-71.52
-79.63
-86.17
-91.28
-95.67
-99.82
-103.51
-105.62
-104.59
-99.06
-88.51
-73.33
-54.72
-34.12
-12.81
8.20
28.23
46.59
62.58
75.44
84.69
90.41
93.37
94.93
96.51
99.20
103.29
108.34
113.34
117.13
118.74
117.51
113.06
105.14
93.73
79.06
61.77
42.89
23.72
5.48
-10.94
-25.16
-37.28
-47.85
-57.68
-67.70
-78.66
-90.82
-103.66
-115.93
-125.74
-131.21
-130.97
-124.64
-112.85
-96.99
-78.76
-59.80
-41.45
-24.74
-10.50
0.67
8.42
12.75
14.08
13.31
11.57
10.01
9.54
10.56
12.91
16.01
18.98
21.05
21.83
21.35
20.07
18.50
16.95
15.34
13.26
10.23
6.03
0.92
-4.52
-9.62
-13.97
-17.69
-21.37
-25.82
-31.68
-39.08
-47.45
-55.52
-61.51
-63.59
-60.31
-51.02
-36.11
-16.95
4.39
25.65
44.82
60.47
71.88
78.94
82.08
82.03
79.72
76.08
72.01
68.11
64.76
62.03
59.77
57.77
55.84
53.95
52.26
51.13
50.87
51.85
54.32
58.45
64.43
72.64
83.93
99.56
120.86
148.34
180.78
214.73
244.93
265.58
272.05
262.36
237.84
202.73
162.85
124.17
91.64
68.51
56.17
54.20
60.46
71.51
83.22
91.74
94.34
90.13
79.99
66.23
51.57
38.31
27.75
20.18
15.20
12.35
11.40
12.36
15.11
19.12
23.32
26.38
27.24
25.62
22.01
17.37
12.50
7.61
2.22
-4.39
-12.58
-21.97
-31.56
-40.14
-47.09
-52.67
-58.02
-64.65
-73.74
-85.65
-99.69
-114.23
-127.10
-136.00
-139.04
-135.19
-124.49
-108.15
-88.22
-67.07
-46.81
-28.90
-14.07
-2.43
6.15
11.94
15.20
16.30
15.69
13.91
11.48
8.89
6.44
4.40
2.91
2.01
1.61
1.38
0.93
-0.17
-2.16
-5.10
-8.85
-13.15
-17.68
-22.22
-26.67
-31.12
-35.93
-41.62
-48.77
-57.68
-68.03
-78.70
-87.81
-93.14
-92.82
-85.97
-73.06
-55.77
-36.49
-17.60
-0.87
12.71
22.88
29.79
33.79
35.35
35.08
33.66
31.80
29.98
28.46
27.21
26.13
25.15
24.33
23.69
23.10
22.25
20.73
18.21
14.58
9.96
4.62
-1.15
-7.10
-13.03
-18.86
-24.57
-30.36
-36.63
-43.90
-52.55
-62.54
-73.06
-82.49
-88.72
-89.69
-84.06
-71.79
-54.17
-33.47
-12.27
7.23
23.64
36.47
45.83
52.09
55.67
56.93
56.23
54.06
50.97
47.62
44.64
42.41
41.06
40.25
39.44
38.04
35.72
32.57
29.04
25.65
22.68
20.02
17.10
13.34
8.36
2.17
-4.76
-11.85
-18.57
-24.70
-30.23
-35.36
-40.32
-45.36
-50.77
-56.85
-63.74
-71.11
-77.98
-82.65
-83.14
-77.87
-66.42
-49.78
-30.16
-10.27
7.58
22.04
32.88
40.58
45.83
49.12
50.73
50.84
49.72
47.88
45.85
44.06
42.69
41.68
40.78
39.84
38.73
37.40
35.85
34.07
32.05
29.70
26.97
23.69
19.72
14.89
9.21
2.90
-3.59
-9.75
-15.13
-19.53
-23.06
-26.07
-29.02
-32.39
-36.52
-41.69
-48.00
-55.30
-62.94
-69.67
-73.71
-73.24
-67.07
-55.24
-39.11
-21.03
-3.51
11.48
23.04
31.16
36.34
39.12
39.88
38.84
36.32
32.90
29.30
26.24
24.22
23.32
23.27
23.56
23.69
23.34
22.49
21.33
20.10
18.85
17.37
15.17
11.79
7.02
1.07
-5.41
-11.63
-16.91
-21.00
-24.12
-26.94
-30.28
-34.90
-41.09
-48.59
-56.41
-63.07
-66.86
-66.36
-60.84
-50.52
-36.55
-20.70
-4.91
9.15
20.38
28.34
33.19
35.45
35.83
35.02
33.58
31.89
30.24
28.83
27.89
27.60
28.06
29.17
30.61
31.96
32.74
32.59
31.23
28.49
24.31
18.66
11.67
3.61
-5.04
-13.75
-22.04
-29.71
-36.86
-43.89
-51.31
-59.51
-68.42
-77.35
-84.99
-89.71
-90.05
-85.24
-75.50
-62.02
-46.51
-30.71
-15.98
-3.19
7.33
15.46
21.27
24.92
26.59
26.54
25.09
22.59
19.46
16.25
13.54
11.84
11.36
11.93
13.03
14.05
14.52
14.21
13.16
11.47
9.19
6.29
2.69
-1.66
-6.70
-12.30
-18.34
-24.79
-31.77
-39.54
-48.29
-57.91
-67.74
-76.42
-82.15
-83.17
-78.47
-68.27
-53.95
-37.75
-21.82
-7.75
3.77
12.74
19.41
23.88
26.04
25.78
23.26
19.17
14.51
10.30
7.18
5.24
4.12
3.34
2.65
2.07
1.86
2.09
2.44
2.19
0.59
-2.79
-7.81
-13.77
-19.84
-25.37
-30.19
-34.54
-38.88
-43.59
-48.96
-55.03
-61.57
-68.04
-73.40
-76.20
-74.88
-68.33
-56.34
-39.86
-20.81
-1.44
16.26
31.04
42.53
50.95
56.80
60.51
62.37
62.56
61.27
58.79
55.48
51.73
47.82
43.98
40.32
36.80
33.30
29.60
25.47
20.76
15.42
9.57
3.32
-3.26
-10.20
-17.53
-25.13
-32.74
-40.02
-46.70
-52.81
-58.64
-64.42
-69.99
-74.43
-76.16
-73.45
-65.10
-51.06
-32.58
-11.82
8.91
27.89
44.27
58.00
69.29
78.12
84.17
86.96
86.34
82.78
77.34
71.30
65.69
61.00
57.18
53.89
50.83
47.92
45.19
42.58
39.79
36.34
31.70
25.58
18.08
9.61
0.80
-7.77
-15.67
-22.78
-29.17
-35.22
-41.45
-48.49
-56.75
-66.10
-75.59
-83.45
-87.49
-85.86
-77.78
-63.91
-46.23
-27.27
-9.26
6.46
19.52
30.19
38.85
45.62
50.41
53.16
54.04
53.65
52.70
51.86
51.46
51.43
51.42
51.00
49.86
47.96
45.48
42.75
40.07
37.63
35.32
32.80
29.59
25.23
19.48
12.50
4.82
-2.83
-9.75
-15.65
-20.72
-25.66
-31.35
-38.54
-47.51
-57.89
-68.59
-77.94
-84.01
-85.11
-80.29
-69.69
-54.51
-36.74
-18.50
-1.45
13.53
26.22
36.77
45.34
51.95
56.55
59.20
60.29
60.43
60.31
60.49
61.28
62.75
64.76
67.04
69.32
71.34
72.87
73.77
73.93
73.26
71.55
68.58
64.09
57.95
50.25
41.32
31.68
21.90
12.50
3.77
-4.23
-11.70
-19.11
-27.04
-36.04
-46.33
-57.57
-68.62
-77.67
-82.62
-81.64
-73.83
-59.57
-40.50
-19.06
2.22
21.39
37.46
50.35
60.59
68.81
75.41
80.50
83.95
85.68
85.78
84.61
82.68
80.63
79.07
78.55
79.48
82.09
86.31
91.62
96.99
100.96
101.91
98.51
90.12
77.11
60.81
43.18
26.11
10.96
-1.81
-12.52
-21.88
-30.55
-38.84
-46.81
-54.43
-61.77
-68.99
-76.08
-82.53
-87.26
-88.83
-86.04
-78.47
-66.85
-52.83
-38.43
-25.35
-14.51
-5.96
0.75
6.16
10.51
13.69
15.42
15.60
14.40
12.44
10.45
9.08
8.64
9.07
9.94
10.74
11.03
10.60
9.51
8.04
6.44
4.80
2.98
0.70
-2.27
-5.96
-10.10
-14.30
-18.18
-21.56
-24.52
-27.29
-30.16
-33.38
-37.16
-41.79
-47.52
-54.54
-62.63
-71.02
-78.38
-83.09
-83.68
-79.34
-70.23
-57.40
-42.55
-27.44
-13.46
-1.39
8.54
16.42
22.45
26.77
29.53
30.95
31.38
31.22
30.82
30.31
29.65
28.74
27.54
26.13
24.64
23.24
21.90
20.56
19.07
17.36
15.36
13.07
10.51
7.64
4.50
1.14
-2.33
-5.82
-9.24
-12.58
-15.84
-18.95
-21.86
-24.49
-27.00
-29.70
-33.09
-37.62
-43.50
-50.38
-57.35
-63.01
-65.82
-64.60
-58.88
-49.12
-36.59
-23.03
-10.05
1.19
10.18
16.95
21.81
25.10
27.07
27.91
27.83
27.10
26.12
25.24
24.77
24.80
25.23
25.74
25.97
25.63
24.60
23.01
21.16
19.38
17.84
16.45
14.90
12.78
9.74
5.71
0.87
-4.33
-9.43
-14.03
-17.96
-21.28
-24.24
-27.22
-30.63
-34.80
-39.77
-45.22
-50.37
-54.10
-55.24
-52.92
-46.95
-37.84
-26.75
-15.05
-4.03
5.42
12.88
18.28
21.76
23.55
23.94
23.27
21.88
20.16
18.46
17.07
16.11
15.66
15.60
15.73
15.81
15.64
15.09
14.13
12.76
10.95
8.52
5.31
1.22
-3.59
-8.70
-13.53
-17.64
-20.92
-23.69
-26.57
-30.25
-35.13
-41.11
-47.53
-53.22
-56.77
-56.96
-53.06
-45.16
-34.15
-21.52
-8.91
2.32
11.41
18.16
22.79
25.61
26.91
26.90
25.84
24.08
22.10
20.41
19.35
18.99
19.12
19.32
19.19
18.49
17.24
15.68
14.06
12.46
10.67
8.29
4.83
0.09
-5.81
-12.38
-18.98
-25.10
-30.46
-35.18
-39.58
-44.15
-49.34
-55.40
-62.28
-69.43
-75.75
-79.77
-80.02
-75.54
-66.25
-53.07
-37.66
-21.85
-7.17
5.52
15.93
24.19
30.45
34.84
37.45
38.49
38.27
37.28
36.05
35.01
34.40
34.23
34.27
34.18
33.65
32.47
30.65
28.41
26.00
23.60
21.09
18.14
14.38
9.60
4.00
-1.88
-7.33
-11.74
-14.86
-16.92
-18.56
-20.63
-23.89
-28.82
-35.38
-42.94
-50.29
-55.91
-58.26
-56.15
-49.08
-37.41
-22.35
-5.70
10.52
24.59
35.38
42.57
46.45
47.61
46.57
43.66
39.10
33.16
26.40
19.55
13.26
7.91
3.60
0.38
-1.43
-1.22
1.75
7.75
16.03
24.71
31.08
32.49
27.34
15.85
0.33
-15.38
-27.05
-31.40
-27.44
-17.27
-5.71
1.15
-2.16
-18.71
-48.22
-87.05
-129.24
-167.87
-196.76
-211.84
-212.05
-199.36
-177.92
-152.61
-127.43
-104.58
-84.33
-65.93
-48.65
-32.49
-18.15
-6.36
2.92
10.66
18.45
27.90
40.12
55.59
73.76
93.05
110.76
123.43
127.65
121.30
104.58
80.21
52.73
26.76
5.51
-10.13
-21.35
-30.25
-38.70
-47.74
-57.63
-68.39
-80.16
-92.86
-105.62
-116.27
-121.59
-118.40
-104.97
-82.24
-53.72
-24.55
0.36
18.08
28.34
33.17
35.58
37.92
40.98
43.94
45.32
44.10
40.62
36.52
33.95
34.42
38.03
43.47
48.62
51.63
51.58
48.74
44.18
39.17
34.77
31.56
29.74
29.21
29.59
30.22
30.14
28.22
23.45
15.28
3.87
-9.69
-23.60
-35.55
-43.22
-44.82
-39.59
-28.21
-12.67
4.05
18.94
29.68
35.40
36.68
35.12
32.57
30.41
29.23
28.95
29.36
30.49
32.72
36.41
41.31
46.39
50.03
50.67
47.66
41.62
34.15
27.12
21.75
18.15
15.43
12.20
7.23
-0.01
-9.16
-19.06
-28.01
-34.23
-36.49
-34.51
-29.16
-22.13
-15.22
-9.64
-5.53
-2.09
1.86
7.27
14.64
23.98
35.03
47.34
60.10
71.79
80.27
83.16
78.94
67.78
51.97
35.34
21.98
14.73
14.24
18.95
25.94
32.26
35.93
36.37
33.99
29.63
23.86
16.82
8.49
-0.94
-10.84
-20.15
-27.88
-33.52
-37.39
-40.61
-44.67
-50.70
-58.97
-68.58
-77.67
-84.06
-85.83
-82.01
-72.69
-58.91
-42.29
-24.51
-7.05
9.06
23.12
34.72
43.55
49.50
52.69
53.58
52.96
51.76
50.87
50.85
51.72
53.06
54.17
54.43
53.52
51.52
48.73
45.45
41.85
37.87
33.35
28.24
22.58
16.51
10.12
3.21
-4.60
-13.73
-24.33
-35.95
-47.48
-57.29
-63.72
-65.55
-62.47
-55.05
-44.52
-32.34
-19.79
-7.88
2.60
10.91
16.31
18.14
16.24
11.08
3.83
-4.03
-11.18
-17.00
-21.72
-26.25
-31.68
-38.77
-47.55
-57.36
-67.20
-76.14
-83.84
-90.60
-97.22
-104.77
-114.25
-126.39
-141.34
-158.20
-174.37
-185.39
-185.63
-170.13
-136.54
-86.16
-23.34
46.46
118.95
192.10
265.63
339.32
411.21
477.08
531.27
568.55
585.86
583.12
562.83
528.92
485.61
436.63
384.91
332.47
280.23
228.00
174.88
119.84
62.66
4.72
-50.90
-100.17
-139.50
-167.13
-183.69
-191.73
-194.47
-194.51
-193.20
-190.98
-188.03
-184.87
-182.39
-181.33
-182.03
-184.11
-186.72
-188.83
-189.54
-188.19
-184.35
-177.77
-168.23
-155.74
-140.55
-123.28
-104.94
-86.81
-70.27
-56.54
-46.43
-40.12
-37.12
-36.43
-36.74
-36.86
-36.13
-34.55
-32.70
-31.50
-31.81
-33.97
-37.73
-42.24
-46.53
-49.82
-51.89
-53.14
-54.31
-56.07
-58.75
-62.06
-65.22
-67.10
-66.47
-62.24
-53.70
-40.61
-23.53
-3.78
16.67
35.87
52.62
66.94
80.11
94.00
110.13
128.83
148.95
168.24
184.28
195.15
199.89
198.41
191.05
178.34
161.00
140.21
117.84
96.35
78.24
65.31
57.98
55.32
55.26
55.43
53.86
49.36
41.52
30.52
16.83
1.06
-15.99
-33.23
-49.36
-62.99
-73.18
-79.71
-83.23
-84.94
-86.07
-87.10
-87.55
-86.16
-81.75
-74.11
-64.41
-55.01
-48.32
-45.81
-47.15
-50.41
-52.84
-52.07
-47.02
-38.15
-27.07
-15.85
-6.44
-0.28
1.69
-1.03
-8.45
-20.03
-34.69
-50.90
-67.16
-82.54
-96.98
-111.21
-125.94
-141.13
-155.59
-167.44
-174.94
-177.40
-175.50
-170.82
-165.10
-159.43
-154.07
-148.70
-143.00
-137.01
-131.09
-125.43
-119.63
-112.49
-102.25
-87.13
-66.03
-39.12
-8.01
24.43
54.86
80.46
99.75
112.79
120.72
125.06
126.89
126.55
123.88
118.77
111.66
103.66
96.27
90.79
87.82
87.06
87.47
87.86
87.43
85.95
83.75
81.44
79.41
77.70
76.02
73.94
71.13
67.51
63.20
58.35
53.06
47.42
41.63
36.09
31.50
28.57
27.86
29.41
32.75
36.95
40.80
43.24
43.58
41.66
37.80
32.64
26.91
21.19
15.80
10.84
6.32
2.24
-1.38
-4.52
-7.20
-9.47
-11.44
-13.29
-15.29
-17.80
-21.20
-25.79
-31.63
-38.42
-45.60
-52.42
-58.20
-62.46
-65.01
-65.84
-65.05
-62.70
-58.75
-53.01
-45.21
-35.13
-22.72
-8.20
7.73
24.03
39.46
52.84
63.36
70.69
75.03
76.95
77.15
76.37
75.26
74.29
73.79
73.87
74.46
75.33
76.19
76.80
76.99
76.74
76.09
75.15
74.06
72.88
71.55
69.70
66.64
61.47
53.39
42.04
27.78
11.65
-4.80
-19.90
-32.23
-40.81
-45.13
-45.12
-41.05
-33.55
-23.53
-12.17
-0.76
9.49
17.58
22.92
25.30
24.80
21.70
16.44
9.67
2.18
-5.16
-11.66
-16.97
-21.24
-25.01
-28.95
-33.53
-38.78
-44.42
-49.89
-54.76
-58.83
-62.29
-65.63
-69.49
-74.41
-80.61
-87.67
-94.49
-99.46
-100.85
-97.42
-88.95
-76.30
-61.27
-45.85
-31.68
-19.55
-9.44
-0.81
6.86
13.73
19.56
23.81
26.03
26.15
24.50
21.80
18.86
16.35
14.65
13.86
13.86
14.38
14.90
14.74
13.09
9.34
3.46
-3.83
-11.14
-16.92
-20.19
-21.03
-20.67
-21.02
-23.75
-29.33
-36.59
-42.81
-44.67
-39.47
-26.21
-6.00
18.45
43.89
67.65
88.27
105.51
119.65
130.83
138.74
142.83
142.69
138.28
129.85
117.63
101.70
82.36
60.64
38.73
19.81
7.17
2.87
6.75
16.23
27.24
35.81
39.60
38.65
34.98
31.27
29.39
29.44
29.70
27.63
21.19
10.02
-4.23
-18.44
-29.23
-34.09
-32.18
-24.40
-12.66
0.87
14.39
26.66
36.73
43.78
46.99
45.97
40.99
33.12
23.87
14.55
5.71
-3.10
-13.19
-25.94
-42.12
-61.32
-82.00
-102.03
-119.55
-133.83
-145.32
-155.35
-165.12
-174.93
-183.95
-190.61
-193.25
-190.51
-181.31
-164.81
-140.55
-109.12
-72.84
-35.78
-2.76
22.36
38.34
47.01
52.43
59.02
69.76
85.03
102.79
119.59
131.99
137.80
136.59
129.43
118.18
104.80
90.85
77.58
66.19
57.95
53.78
53.50
55.28
56.02
52.62
43.59
30.18
15.96
5.20
0.80
2.87
8.79
14.62
16.89
13.86
5.53
-7.15
-23.42
-43.17
-66.59
-93.48
-122.73
-152.56
-181.21
-207.51
-230.57
-248.95
-260.00
-260.17
-246.57
-218.85
-180.23
-136.66
-94.44
-57.24
-24.68
6.92
41.73
81.16
122.40
159.25
185.09
196.06
192.83
179.91
163.53
149.21
140.06
136.76
138.27
142.57
147.02
148.39
143.18
128.49
103.11
68.21
27.17
-15.44
-55.18
-88.66
-113.98
-130.63
-139.19
-140.95
-137.61
-130.88
-122.22
-112.69
-103.06
-94.10
-86.62
-81.27
-78.20
-76.90
-76.35
-75.64
-74.39
-72.75
-71.01
-69.18
-66.79
-63.10
-57.61
-50.22
-41.10
-30.22
-17.14
-1.18
17.79
38.70
59.21
76.14
86.56
88.63
82.02
67.74
47.61
23.78
-1.51
-25.99
-47.31
-62.98
-70.57
-68.02
-54.14
-29.09
5.20
45.30
86.86
125.67
158.65
184.39
202.83
214.62
220.53
221.08
216.87
208.80
198.14
186.23
173.93
161.34
147.90
132.93
115.99
96.88
75.21
50.15
20.62
-13.85
-51.91
-90.12
-123.71
-148.42
-162.35
-166.72
-164.92
-160.48
-155.27
-148.99
-140.43
-129.31
-117.43
-108.12
-104.46
-107.17
-113.86
-120.15
-121.84
-117.03
-106.83
-94.35
-82.72
-73.54
-66.33
-59.44
-51.45
-42.29
-33.31
-26.49
-23.21
-23.52
-26.05
-28.68
-29.50
-27.51
-22.81
-16.21
-8.63
-0.65
7.63
16.32
25.40
34.33
42.17
47.84
50.57
50.21
47.30
42.71
37.26
31.28
24.52
16.25
5.68
-7.77
-24.09
-42.55
-61.80
-79.97
-95.20
-106.01
-111.67
-112.39
-109.18
-103.50
-96.87
-90.37
-84.63
-79.75
-75.62
-72.10
-69.25
-67.38
-67.01
-68.73
-72.87
-79.27
-87.14
-95.25
-102.26
-107.20
-109.90
-110.96
-111.50
-112.59
-114.90
-118.48
-122.99
-127.83
-132.23
-135.04
-134.82
-130.14
-120.27
-105.81
-88.81
-72.28
-59.13
-51.15
-48.46
-49.67
-52.60
-54.88
-54.66
-50.73
-42.62
-30.64
-15.87
-0.02
15.16
28.31
38.92
47.38
54.48
61.02
67.43
73.77
79.92
85.81
91.45
96.71
101.24
104.42
105.62
104.52
101.29
96.48
90.79
84.77
78.65
72.43
66.00
59.34
52.43
45.14
37.20
28.22
17.86
6.21
-6.06
-17.67
-26.82
-31.75
-31.19
-24.81
-13.33
1.62
18.01
34.03
48.44
60.79
71.19
80.00
87.48
93.59
98.08
100.66
101.20
99.86
97.13
93.61
89.92
86.44
83.31
80.39
77.39
74.02
70.04
65.45
60.35
54.92
49.30
43.53
37.57
31.27
24.42
16.80
8.23
-1.22
-11.06
-20.16
-26.88
-29.31
-25.94
-16.19
-0.75
18.58
39.43
59.62
77.61
92.70
104.81
114.08
120.61
124.48
125.84
125.07
122.77
119.63
116.19
112.78
109.54
106.63
104.28
102.81
102.41
102.94
103.85
104.20
102.95
99.31
92.92
83.97
73.00
60.78
48.00
35.14
22.38
9.57
-3.65
-17.73
-32.89
-48.87
-64.73
-78.82
-89.12
-93.79
-91.73
-82.97
-68.61
-50.50
-30.73
-11.06
7.24
23.45
37.14
48.07
55.98
60.68
62.12
60.53
56.38
50.34
43.22
35.76
28.60
22.16
16.70
12.24
8.69
5.80
3.26
0.68
-2.40
-6.39
-11.58
-18.03
-25.44
-33.20
-40.57
-46.92
-52.05
-56.25
-60.34
-65.30
-71.94
-80.44
-90.10
-99.37
-106.16
-108.40
-104.75
-94.93
-79.84
-61.27
-41.35
-21.99
-4.61
10.08
21.86
30.84
37.30
41.55
43.92
44.68
44.05
42.27
39.66
36.62
33.57
30.90
28.84
27.43
26.54
25.89
25.08
23.69
21.32
17.67
12.72
6.71
0.07
-6.67
-13.18
-19.42
-25.70
-32.53
-40.44
-49.68
-59.98
-70.36
-79.26
-84.77
-85.19
-79.59
-68.12
-52.16
-33.83
-15.46
1.05
14.68
25.26
33.24
39.27
43.83
47.09
49.06
49.67
49.06
47.55
45.49
43.20
40.81
38.28
35.65
33.01
30.55
28.37
26.33
24.04
21.03
16.94
11.77
5.89
-0.16
-5.92
-11.17
-16.05
-20.99
-26.56
-33.33
-41.63
-51.32
-61.59
-70.90
-77.25
-78.76
-74.28
-63.91
-49.01
-31.78
-14.53
0.99
13.95
24.35
32.67
39.38
44.70
48.58
50.88
51.61
51.03
49.61
47.79
45.83
43.72
41.29
38.42
35.24
32.08
29.35
27.26
25.63
23.93
21.43
17.60
12.27
5.74
-1.34
-8.24
-14.40
-19.62
-24.10
-28.40
-33.29
-39.48
-47.35
-56.72
-66.58
-75.26
-80.75
-81.30
-76.06
-65.33
-50.56
-33.76
-16.95
-1.54
11.78
22.87
31.86
38.86
43.90
47.07
48.55
48.69
47.94
46.68
45.21
43.72
42.31
41.05
39.94
38.89
37.77
36.37
34.54
32.24
29.52
26.44
23.02
19.15
14.70
9.56
3.82
-2.24
-8.21
-13.73
-18.61
-22.90
-26.82
-30.71
-34.90
-39.76
-45.61
-52.67
-60.85
-69.46
-77.16
-82.25
-83.04
-78.55
-68.86
-55.11
-39.14
-22.93
-8.07
4.54
14.65
22.47
28.37
32.64
35.51
37.15
37.69
37.36
36.41
35.20
34.05
33.13
32.49
32.01
31.46
30.65
29.47
27.91
26.07
24.04
21.85
19.44
16.72
13.58
9.96
5.84
1.22
-3.83
-9.14
-14.49
-19.61
-24.32
-28.52
-32.36
-36.11
-40.20
-45.04
-50.86
-57.49
-64.23
-69.85
-72.83
-71.82
-66.08
-55.84
-42.24
-27.05
-12.12
1.01
11.45
18.96
23.81
26.58
27.90
28.29
28.15
27.71
27.14
26.58
26.11
25.80
25.55
25.17
24.50
23.45
22.13
20.74
19.47
18.36
17.18
15.53
12.98
9.30
4.57
-0.86
-6.46
-11.78
-16.60
-20.96
-25.16
-29.59
-34.66
-40.65
-47.68
-55.66
-64.17
-72.49
-79.68
-84.70
-86.82
-85.71
-81.62
-75.28
-67.61
-59.49
-51.48
-43.78
-36.24
-28.53
-20.33
-11.58
-2.54
6.17
13.78
19.67
23.60
25.83
27.03
28.08
29.79
32.87
37.66
44.22
52.25
61.05
69.54
76.42
80.46
80.86
77.48
70.92
62.29
52.92
43.98
36.27
30.11
25.42
21.85
18.90
16.00
12.68
8.57
3.54
-2.16
-7.82
-12.22
-13.91
-11.66
-5.01
5.38
17.80
29.93
39.79
46.21
49.10
49.06
46.79
42.62
36.57
28.69
19.53
10.26
2.36
-2.93
-5.13
-4.59
-2.28
0.72
3.54
5.62
6.74
6.76
5.63
3.32
-0.05
-4.37
-9.42
-14.97
-20.77
-26.48
-31.75
-36.31
-40.14
-43.41
-46.41
-49.35
-52.22
-54.86
-57.08
-58.77
-59.87
-60.19
-59.21
-56.18
-50.35
-41.45
-30.01
-17.30
-4.92
5.75
13.99
19.80
23.61
25.93
27.07
27.08
25.89
23.55
20.27
16.41
12.34
8.39
4.76
1.68
-0.68
-2.08
-2.37
-1.62
-0.03
1.94
3.73
4.87
5.03
4.19
2.55
0.42
-1.96
-4.56
-7.63
-11.59
-16.83
-23.44
-31.13
-39.03
-45.96
-50.63
-51.97
-49.44
-43.18
-33.97
-22.97
-11.52
-0.71
8.73
16.42
22.29
26.34
28.60
29.10
27.97
25.48
22.01
18.11
14.26
10.87
8.16
6.18
4.82
3.78
2.75
1.41
-0.33
-2.41
-4.55
-6.51
-8.22
-9.89
-11.99
-15.01
-19.31
-24.99
-31.85
-39.44
-46.99
-53.44
-57.54
-58.12
-54.44
-46.53
-35.39
-22.73
-10.42
-0.03
7.62
12.54
15.25
16.48
16.74
16.25
15.02
13.08
10.58
7.81
5.16
2.84
0.93
-0.70
-2.24
-3.90
-5.80
-7.97
-10.43
-13.08
-15.84
-18.67
-21.62
-24.94
-28.99
-34.15
-40.60
-48.12
-55.96
-62.95
-67.63
-68.71
-65.38
-57.58
-46.04
-32.12
-17.39
-3.20
9.50
20.33
29.26
36.35
41.69
45.33
47.44
48.35
48.64
48.89
49.54
50.71
52.17
53.50
54.24
54.05
52.77
50.46
47.28
43.46
39.32
35.16
31.19
27.42
23.54
18.95
12.94
4.80
-5.67
-18.03
-31.00
-42.69
-50.97
-54.13
-51.34
-42.96
-30.42
-15.80
-1.18
11.74
22.01
29.37
34.05
36.55
37.39
37.09
36.19
35.17
34.47
34.22
34.24
33.96
32.63
29.64
24.74
18.30
11.04
3.76
-2.90
-8.74
-13.91
-18.78
-23.68
-28.83
-34.28
-40.06
-46.23
-53.02
-60.69
-69.38
-78.73
-87.82
-95.17
-99.12
-98.38
-92.54
-82.23
-69.01
-54.77
-41.17
-29.30
-19.53
-11.80
-5.87
-1.61
1.09
2.34
2.49
2.15
2.03
2.74
4.52
7.14
9.97
12.24
13.29
12.81
10.83
7.69
3.94
0.13
-3.28
-6.07
-8.33
-10.51
-13.29
-17.36
-23.13
-30.57
-39.00
-47.18
-53.54
-56.47
-54.86
-48.36
-37.56
-23.89
-9.19
4.78
16.80
26.31
33.29
37.96
40.49
41.02
39.71
36.93
33.29
29.54
26.33
24.03
22.59
21.68
20.77
19.43
17.43
14.75
11.62
8.32
5.04
1.79
-1.64
-5.63
-10.51
-16.53
-23.69
-31.63
-39.68
-46.73
-51.50
-52.66
-49.26
-41.04
-28.57
-13.24
3.25
19.20
33.36
45.06
54.05
60.40
64.23
65.74
65.27
63.34
60.62
57.82
55.41
53.57
52.10
50.54
48.32
45.02
40.51
34.97
28.87
22.74
16.96
11.69
6.77
1.84
-3.47
-9.46
-16.32
-24.11
-32.70
-41.75
-50.48
-57.68
-61.90
-61.81
-56.67
-46.59
-32.61
-16.34
0.46
16.29
30.14
41.54
50.37
56.70
60.71
62.65
62.85
61.73
59.78
57.46
55.11
52.95
51.03
49.33
47.83
46.53
45.42
44.44
43.34
41.76
39.30
35.69
30.90
25.17
18.91
12.48
6.10
-0.25
-6.76
-13.67
-21.19
-29.35
-37.84
-45.99
-52.81
-57.16
-58.10
-55.17
-48.56
-39.07
-27.87
-16.22
-5.13
4.67
12.82
19.24
24.04
27.40
29.53
30.65
30.96
30.69
30.09
29.39
28.73
28.13
27.47
26.61
25.48
24.11
22.59
21.01
19.27
17.14
14.32
10.59
6.00
0.89
-4.24
-8.84
-12.64
-15.69
-18.39
-21.40
-25.31
-30.51
-36.92
-44.00
-50.78
-56.00
-58.50
-57.40
-52.44
-43.97
-32.96
-20.64
-8.24
3.27
13.31
21.58
27.98
32.45
35.03
35.92
35.54
34.46
33.29
32.47
32.11
32.02
31.83
31.28
30.28
28.95
27.45
25.82
23.87
21.26
17.70
13.17
7.94
2.50
-2.60
-7.11
-11.04
-14.69
-18.52
-22.95
-28.32
-34.74
-41.97
-49.34
-55.80
-60.11
-61.16
-58.33
-51.71
-42.08
-30.62
-18.59
-6.96
3.62
12.81
20.47
26.53
30.96
33.83
35.31
35.68
35.23
34.28
33.06
31.71
30.34
29.03
27.86
26.82
25.81
24.62
22.96
20.56
17.24
13.00
8.00
2.56
-2.92
-7.99
-12.40
-16.14
-19.51
-23.06
-27.46
-33.20
-40.31
-48.28
-56.04
-62.16
-65.23
-64.21
-58.77
-49.40
-37.22
-23.71
-10.26
2.15
13.03
22.32
30.13
36.45
41.20
44.23
45.54
45.38
44.22
42.62
41.01
39.60
38.33
36.99
35.40
33.45
31.23
28.97
26.86
24.98
23.17
21.07
18.27
14.49
9.77
4.45
-0.95
-5.98
-10.40
-14.27
-17.87
-21.58
-25.77
-30.73
-36.66
-43.51
-50.95
-58.18
-64.04
-67.26
-66.80
-62.20
-53.76
-42.42
-29.48
-16.27
-3.78
7.38
17.00
25.06
31.60
36.62
40.15
42.27
43.18
43.18
42.57
41.61
40.47
39.21
37.88
36.53
35.17
33.76
32.20
30.36
28.12
25.49
22.52
19.28
15.78
11.96
7.75
3.13
-1.73
-6.61
-11.21
-15.40
-19.19
-22.82
-26.58
-30.73
-35.48
-40.92
-47.08
-53.78
-60.58
-66.64
-70.79
-71.76
-68.64
-61.26
-50.38
-37.42
-23.99
-11.38
-0.24
9.33
17.53
24.47
30.08
34.14
36.51
37.32
36.96
35.94
34.65
33.31
31.93
30.49
28.98
27.53
26.27
25.24
24.35
23.44
22.25
20.61
18.42
15.63
12.27
8.36
3.99
-0.69
-5.48
-10.16
-14.50
-18.41
-21.95
-25.30
-28.76
-32.64
-37.22
-42.61
-48.69
-54.91
-60.36
-63.85
-64.18
-60.59
-53.03
-42.28
-29.67
-16.72
-4.64
5.91
14.76
22.05
27.94
32.49
35.71
37.61
38.41
38.43
38.01
37.44
36.83
36.17
35.45
34.66
33.88
33.19
32.61
32.01
31.13
29.63
27.31
24.19
20.52
16.69
13.05
9.68
6.45
3.08
-0.66
-4.80
-9.14
-13.31
-17.04
-20.25
-23.14
-26.18
-29.87
-34.65
-40.61
-47.38
-54.16
-59.78
-63.01
-62.88
-58.91
-51.34
-40.96
-28.92
-16.41
-4.42
6.40
15.72
23.47
29.69
34.51
38.09
40.59
42.24
43.18
43.55
43.45
42.97
42.25
41.39
40.45
39.46
38.40
37.23
35.93
34.48
32.80
30.72
28.01
24.53
20.31
15.66
11.10
7.11
3.94
1.41
-0.98
-3.82
-7.47
-11.94
-16.87
-21.78
-26.32
-30.40
-34.19
-38.01
-42.19
-47.00
-52.61
-59.09
-66.23
-73.42
-79.61
-83.38
-83.48
-79.16
-70.58
-58.72
-45.13
-31.38
-18.64
-7.56
1.64
8.97
14.51
18.31
20.48
21.26
20.99
20.13
19.07
18.07
17.27
16.63
16.09
15.57
15.04
14.60
14.42
14.60
15.18
16.01
16.86
17.46
17.62
17.24
16.21
14.36
11.49
7.47
2.39
-3.32
-8.98
-13.94
-17.82
-20.68
-22.99
-25.38
-28.41
-32.45
-37.63
-43.75
-50.22
-55.95
-59.45
-59.14
-53.92
-43.62
-29.19
-12.49
4.36
19.57
32.10
41.69
48.58
53.21
55.97
57.14
56.84
55.21
52.41
48.65
44.22
39.44
34.61
29.94
25.51
21.41
17.72
14.51
11.76
9.27
6.65
3.42
-0.76
-5.92
-11.75
-17.67
-23.10
-27.65
-31.21
-33.90
-35.85
-37.06
-37.34
-36.35
-33.73
-29.31
-23.12
-15.31
-6.13
4.23
15.57
27.63
40.00
52.14
63.43
73.26
81.07
86.22
87.93
85.30
77.53
64.27
45.87
23.33
-1.86
-28.22
-54.41
-79.24
-101.54
-120.01
-133.31
-140.40
-140.92
-135.40
-125.13
-111.78
-96.93
-81.76
-66.98
-52.94
-39.84
-27.91
-17.43
-8.67
-1.80
3.19
6.52
8.57
9.72
10.25
10.26
9.66
8.31
6.08
2.92
-1.14
-6.06
-11.71
-17.75
-23.53
-28.09
-30.30
-29.21
-24.40
-16.11
-5.22
6.98
19.20
30.36
39.85
47.50
53.40
57.77
60.72
62.24
62.28
60.90
58.36
55.21
52.15
49.80
48.58
48.56
49.51
50.97
52.39
53.25
53.13
51.79
49.24
45.63
41.29
36.54
31.63
26.63
21.41
15.65
8.88
0.75
-8.77
-19.19
-29.43
-38.05
-43.59
-45.07
-42.22
-35.61
-26.40
-15.98
-5.62
3.81
11.90
18.61
24.17
28.88
32.99
36.65
39.92
42.84
45.36
47.42
48.99
50.03
50.58
50.74
50.67
50.54
50.47
50.45
50.36
49.96
48.94
47.04
44.04
39.93
34.88
29.13
22.95
16.43
9.41
1.58
-7.29
-17.04
-27.04
-36.14
-43.09
-46.86
-47.04
-43.89
-38.25
-31.19
-23.73
-16.60
-10.19
-4.67
-0.11
3.48
6.01
7.49
8.10
8.18
8.22
8.75
10.10
12.35
15.17
18.00
20.17
21.09
20.53
18.59
15.66
12.29
8.93
5.90
3.27
0.99
-1.07
-3.11
-5.46
-8.55
-12.96
-19.17
-27.31
-36.86
-46.73
-55.35
-61.20
-63.28
-61.35
-55.99
-48.29
-39.49
-30.61
-22.23
-14.60
-7.63
-1.29
4.39
9.21
12.95
15.45
16.75
17.13
16.99
16.81
16.92
17.47
18.36
19.36
20.21
20.71
20.77
20.41
19.73
18.77
17.48
15.67
13.00
9.12
3.72
-3.31
-11.89
-21.64
-31.92
-41.76
-49.97
-55.33
-56.87
-54.21
-47.69
-38.35
-27.63
-16.95
-7.39
0.49
6.61
11.20
14.54
16.88
18.30
18.78
18.28
16.76
14.32
11.17
7.65
4.20
1.11
-1.46
-3.62
-5.68
-7.99
-10.83
-14.26
-18.16
-22.32
-26.53
-30.73
-34.97
-39.35
-44.02
-49.18
-55.03
-61.65
-68.92
-76.20
-82.32
-85.71
-84.90
-79.00
-68.09
-53.30
-36.38
-19.24
-3.35
10.54
22.26
31.95
39.78
45.71
49.62
51.44
51.40
49.93
47.64
45.08
42.58
40.28
38.18
36.24
34.50
32.93
31.43
29.73
27.47
24.33
20.25
15.44
10.37
5.54
1.29
-2.35
-5.69
-9.29
-13.79
-19.71
-27.20
-35.94
-44.99
-52.92
-58.15
-59.34
-55.87
-48.08
-37.15
-24.73
-12.38
-1.20
8.27
15.91
21.77
25.85
28.11
28.56
27.38
24.94
21.77
18.29
14.82
11.46
8.20
4.93
1.56
-1.98
-5.69
-9.55
-13.56
-17.73
-22.17
-26.91
-31.84
-36.57
-40.52
-43.17
-44.30
-44.13
-43.25
-42.33
-41.73
-41.30
-40.44
-38.36
-34.50
-28.72
-21.34
-12.86
-3.72
5.87
15.81
25.96
35.92
45.07
52.63
58.09
61.31
62.58
62.43
61.42
59.94
58.25
56.55
55.10
54.26
54.26
55.07
56.28
57.18
57.01
55.26
51.95
47.50
42.63
37.90
33.54
29.27
24.39
18.05
9.48
-1.76
-15.58
-31.13
-46.80
-60.33
-69.28
-71.68
-66.66
-54.76
-37.75
-18.07
1.89
20.30
36.17
49.08
59.04
66.22
70.78
73.07
73.49
72.47
70.34
67.23
63.12
57.94
51.68
44.57
37.00
29.42
22.12
15.17
8.39
1.41
-6.03
-14.06
-22.53
-31.15
-39.54
-47.44
-54.65
-61.21
-67.31
-73.30
-79.50
-86.00
-92.42
-97.89
-101.18
-101.14
-97.07
-89.00
-77.73
-64.56
-50.86
-37.78
-26.02
-15.76
-6.93
0.66
7.16
12.53
16.65
19.42
20.88
21.22
20.81
19.90
18.67
17.14
15.26
13.12
10.95
9.01
7.44
6.15
4.80
2.96
0.32
-3.18
-7.30
-11.65
-15.79
-19.40
-22.44
-25.12
-27.85
-31.07
-35.08
-39.74
-44.41
-48.05
-49.46
-47.68
-42.26
-33.37
-21.81
-8.67
4.86
17.76
29.21
38.69
45.92
50.77
53.33
53.77
52.36
49.36
45.04
39.68
33.59
27.18
20.83
14.97
9.85
5.61
2.28
-0.11
-1.62
-2.38
-2.72
-3.11
-4.06
-5.96
-8.95
-12.91
-17.63
-23.05
-29.26
-36.40
-44.41
-52.75
-60.43
-66.16
-68.77
-67.53
-62.38
-53.90
-43.13
-31.35
-19.85
-9.77
-1.93
3.25
5.82
6.36
5.86
5.57
6.56
9.47
14.17
19.82
25.17
29.06
30.83
30.56
28.83
26.45
23.94
21.49
18.98
16.22
13.20
10.15
7.41
5.16
3.33
1.48
-1.07
-5.08
-11.12
-19.32
-29.22
-39.70
-49.13
-55.81
-58.42
-56.34
-49.84
-39.96
-28.16
-16.00
-4.82
4.39
11.18
15.62
18.48
20.95
24.34
29.56
36.69
44.80
52.31
57.53
59.29
57.28
52.06
44.79
36.89
29.69
24.23
21.12
20.37
21.43
23.35
25.02
25.64
24.84
22.79
20.02
17.16
14.65
12.51
10.23
6.76
0.91
-8.14
-20.13
-33.48
-45.47
-53.16
-54.53
-49.29
-39.02
-26.44
-14.23
-4.03
3.96
10.60
16.99
23.69
30.43
36.22
39.97
40.87
38.72
33.80
26.76
18.28
9.09
-0.21
-9.02
-16.83
-23.27
-28.15
-31.55
-33.82
-35.52
-37.32
-39.84
-43.44
-48.10
-53.46
-59.00
-64.35
-69.44
-74.59
-80.13
-86.11
-91.92
-96.37
-97.97
-95.48
-88.38
-77.07
-62.84
-47.38
-32.43
-19.32
-8.80
-1.08
3.95
6.61
7.23
6.17
3.92
1.05
-1.88
-4.50
-6.84
-9.30
-12.35
-16.18
-20.54
-24.80
-28.42
-31.37
-34.36
-38.58
-45.15
-54.39
-65.55
-76.89
-86.29
-91.92
-92.66
-88.22
-79.04
-66.16
-51.11
-35.71
-21.79
-10.68
-2.84
2.36
6.35
10.96
17.67
27.15
39.08
52.37
65.60
77.47
87.07
93.83
97.46
97.64
94.06
86.47
74.96
60.27
43.81
27.42
12.86
1.35
-6.68
-11.46
-13.59
-13.66
-12.14
-9.36
-5.80
-2.14
0.70
1.91
1.00
-1.84
-5.91
-10.23
-13.99
-16.88
-19.16
-21.51
-24.68
-29.24
-35.31
-42.45
-49.71
-55.75
-59.06
-58.36
-53.04
-43.27
-30.13
-15.17
-0.03
14.09
26.59
37.41
46.71
54.66
61.22
66.20
69.45
70.95
70.90
69.70
67.78
65.53
63.31
61.41
60.03
59.18
58.63
57.95
56.60
54.16
50.47
45.67
40.07
33.98
27.58
20.88
13.73
5.96
-2.67
-12.32
-22.97
-34.24
-45.18
-54.32
-59.94
-60.63
-55.79
-45.96
-32.59
-17.66
-2.95
10.35
21.66
30.87
37.83
42.36
44.13
43.03
39.45
34.26
28.67
23.81
20.45
18.75
18.45
18.98
19.80
20.47
20.67
20.18
18.82
16.41
12.92
8.48
3.40
-1.85
-6.88
-11.46
-15.64
-19.79
-24.40
-29.98
-36.76
-44.47
-52.21
-58.54
-61.82
-60.64
-54.35
-43.24
-28.53
-12.00
4.58
19.81
32.90
43.63
52.07
58.45
63.02
66.03
67.77
68.64
69.05
69.38
69.80
70.25
70.48
70.22
69.32
67.89
66.21
64.57
63.04
61.35
59.06
55.74
51.21
45.71
39.80
34.15
29.20
24.99
20.97
16.22
9.73
0.96
-9.75
-20.96
-30.34
-35.23
-33.57
-24.52
-8.83
11.40
33.33
53.98
70.84
82.15
87.15
86.03
79.92
70.50
59.60
48.82
39.36
32.00
27.32
25.81
27.76
33.14
41.40
51.46
62.07
72.05
80.63
87.45
92.49
95.74
97.26
97.06
95.19
91.90
87.62
82.93
78.40
74.41
70.99
67.84
64.54
60.81
56.79
53.15
50.86
50.79
53.42
58.55
65.43
72.91
79.87
85.41
88.96
90.17
88.71
84.24
76.48
65.46
51.70
36.26
20.52
5.84
-6.85
-17.16
-25.22
-31.47
-36.46
-40.71
-44.74
-49.04
-54.08
-60.18
-67.45
-75.74
-84.65
-93.70
-102.44
-110.56
-118.00
-124.84
-131.27
-137.49
-143.50
-149.11
-153.92
-157.42
-159.17
-158.97
-156.92
-153.39
-148.85
-143.82
-138.75
-134.06
-130.10
-127.14
-125.28
-124.49
-124.62
-125.60
-127.47
-130.34
-134.09
-138.20
-141.57
-142.85
-140.85
-135.17
-126.35
-115.74
-104.89
-94.96
-86.43
-79.22
-72.98
-67.61
-63.33
-60.49
-59.23
-59.15
-59.38
-58.80
-56.54
-52.10
-45.51
-37.17
-27.67
-17.72
-8.01
0.82
8.32
14.29
18.73
21.81
23.64
24.26
23.65
21.95
19.53
16.99
14.90
13.52
12.64
11.69
10.10
7.52
4.21
0.84
-1.73
-2.95
-2.76
-1.68
-0.58
-0.30
-1.34
-3.73
-6.99
-10.32
-12.74
-13.27
-11.11
-5.86
2.31
12.62
23.83
34.59
43.88
51.33
57.22
62.21
66.83
71.19
74.92
77.48
78.54
78.23
77.11
75.78
74.60
73.52
72.19
70.25
67.60
64.45
61.19
58.10
55.13
51.96
48.12
43.35
37.69
31.56
25.52
20.01
15.16
10.74
6.43
2.01
-2.30
-5.90
-7.90
-7.52
-4.39
1.29
8.76
16.95
24.80
31.58
37.05
41.44
45.26
48.99
52.85
56.71
60.22
63.07
65.24
67.09
69.22
72.26
76.57
82.03
88.20
94.42
100.11
104.98
109.07
112.74
116.50
120.94
126.45
133.06
140.12
146.27
149.49
147.58
138.86
122.90
100.96
75.84
51.09
29.84
13.71
2.46
-5.70
-13.02
-21.18
-30.63
-40.57
-49.63
-56.68
-61.34
-64.05
-65.64
-66.80
-67.79
-68.43
-68.47
-67.87
-66.87
-65.92
-65.40
-65.47
-66.17
-67.51
-69.60
-72.79
-77.42
-83.65
-91.33
-99.88
-108.53
-116.42
-122.90
-127.58
-130.36
-131.27
-130.38
-127.67
-122.98
-116.16
-107.19
-96.35
-84.17
-71.35
-58.59
-46.37
-34.99
-24.57
-15.21
-6.98
0.09
6.06
11.17
15.77
20.26
24.90
29.77
34.70
39.25
42.89
45.09
45.59
44.47
42.13
39.15
35.99
32.83
29.46
25.45
20.31
13.83
6.10
-2.38
-10.77
-18.07
-23.28
-25.67
-24.93
-21.42
-16.03
-10.00
-4.55
-0.60
1.42
1.46
-0.25
-3.40
-7.74
-12.99
-18.82
-24.85
-30.61
-35.63
-39.56
-42.16
-43.35
-43.25
-42.14
-40.37
-38.42
-36.65
-35.35
-34.59
-34.36
-34.64
-35.41
-36.60
-38.10
-39.61
-40.75
-41.14
-40.59
-39.04
-36.53
-33.01
-28.29
-22.10
-14.32
-5.14
4.93
15.14
24.78
33.35
40.62
46.53
51.03
54.04
55.55
55.72
55.02
54.13
53.81
54.62
56.69
59.82
63.54
67.38
71.08
74.65
78.25
82.10
86.20
90.37
94.25
97.47
99.71
100.83
100.71
99.27
96.49
92.45
87.27
80.92
73.00
62.59
48.48
29.84
6.82
-19.11
-45.35
-69.04
-87.79
-100.44
-106.92
-108.03
-104.86
-98.54
-90.12
-80.65
-71.17
-62.54
-55.27
-49.40
-44.59
-40.34
-36.23
-32.06
-27.92
-24.11
-21.07
-19.21
-18.87
-20.23
-23.35
-28.16
-34.43
-41.67
-49.01
-55.23
-58.96
-59.02
-54.90
-46.92
-36.14
-24.10
-12.27
-1.88
6.41
12.36
16.04
17.72
17.79
16.73
15.05
13.23
11.55
10.08
8.71
7.22
5.40
3.13
0.45
-2.52
-5.59
-8.53
-11.16
-13.46
-15.58
-17.83
-20.66
-24.46
-29.55
-35.92
-43.25
-50.70
-57.10
-61.03
-61.25
-57.08
-48.68
-37.10
-23.94
-10.90
0.80
10.58
18.43
24.60
29.27
32.49
34.18
34.42
33.44
31.70
29.71
27.86
26.34
25.09
23.96
22.70
21.15
19.16
16.71
13.73
10.19
6.07
1.33
-4.00
-9.92
-16.43
-23.64
-31.66
-40.54
-50.07
-59.56
-67.96
-74.03
-76.76
-75.68
-71.00
-63.44
-53.94
-43.32
-32.15
-20.76
-9.44
1.44
11.41
20.02
27.03
32.59
37.15
41.38
45.94
51.28
57.58
64.67
71.99
78.64
83.48
85.43
83.71
78.27
69.97
60.58
52.29
47.02
45.57
47.24
49.86
50.54
46.68
36.93
21.71
3.05
-16.13
-32.83
-44.81
-50.92
-51.11
-46.18
-37.48
-26.64
-15.36
-5.17
2.76
7.83
10.11
10.25
9.19
7.82
6.65
5.75
4.87
3.73
2.25
0.62
-0.81
-1.76
-2.19
-2.34
-2.60
-3.30
-4.58
-6.37
-8.48
-10.75
-13.13
-15.71
-18.63
-22.03
-26.02
-30.66
-35.83
-41.15
-45.80
-48.64
-48.38
-44.10
-35.67
-23.88
-10.35
3.11
14.99
24.52
31.53
36.35
39.33
40.70
40.58
39.18
36.85
34.18
31.77
30.03
29.08
28.69
28.48
28.07
27.26
26.02
24.38
22.40
20.03
17.16
13.72
9.76
5.47
1.14
-3.05
-7.10
-11.28
-16.00
-21.56
-27.94
-34.54
-40.25
-43.69
-43.60
-39.29
-30.90
-19.43
-6.46
6.27
17.33
25.87
31.68
35.02
36.36
36.23
35.07
33.24
31.09
28.91
27.04
25.66
24.81
24.39
24.14
23.84
23.35
22.65
21.75
20.61
19.06
16.83
13.74
9.81
5.39
1.01
-2.90
-6.18
-9.05
-12.03
-15.69
-20.35
-25.89
-31.75
-36.97
-40.37
-40.83
-37.61
-30.60
-20.47
-8.58
3.40
13.95
22.16
27.82
31.25
32.98
33.41
32.71
30.97
28.38
25.34
22.40
20.03
18.49
17.65
17.16
16.62
15.79
14.60
13.14
11.50
9.64
7.50
4.97
2.04
-1.15
-4.41
-7.66
-10.95
-14.54
-18.71
-23.57
-28.88
-34.01
-38.06
-40.06
-39.24
-35.24
-28.28
-19.13
-8.97
0.98
9.63
16.39
21.09
23.87
24.95
24.52
22.69
19.67
15.92
12.05
8.78
6.55
5.43
5.07
4.86
4.23
2.83
0.62
-2.22
-5.42
-8.77
-12.11
-15.45
-18.79
-22.18
-25.65
-29.29
-33.21
-37.41
-41.72
-45.62
-48.22
-48.51
-45.69
-39.51
-30.41
-19.48
-8.05
2.71
12.01
19.53
25.19
29.04
31.09
31.48
30.51
28.73
26.79
25.26
24.40
24.18
24.31
24.43
24.30
23.80
22.95
21.78
20.28
18.43
16.19
13.57
10.56
7.12
3.10
-1.73
-7.54
-14.32
-21.66
-28.65
-34.07
-36.62
-35.32
-29.92
-20.99
-9.77
2.18
13.48
23.20
31.01
37.02
41.46
44.58
46.50
47.28
47.05
46.03
44.60
43.09
41.76
40.70
39.79
38.79
37.42
35.52
33.01
29.91
26.26
22.10
17.41
12.17
6.39
0.16
-6.42
-13.25
-20.31
-27.71
-35.54
-43.70
-51.70
-58.57
-63.05
-63.94
-60.61
-53.26
-42.95
-31.25
-19.78
-9.75
-1.78
4.06
8.04
10.51
11.84
12.34
12.28
11.97
11.58
11.26
10.98
10.72
10.42
10.08
9.72
9.39
9.07
8.65
7.95
6.80
5.10
2.88
0.30
-2.46
-5.24
-7.99
-10.78
-13.79
-17.28
-21.46
-26.43
-31.97
-37.48
-41.95
-44.25
-43.42
-39.01
-31.27
-21.11
-9.82
1.25
10.96
18.57
23.78
26.57
27.22
26.16
23.99
21.32
18.67
16.41
14.67
13.46
12.64
12.02
11.41
10.68
9.72
8.50
7.01
5.29
3.32
1.07
-1.48
-4.35
-7.48
-10.74
-13.95
-16.96
-19.77
-22.49
-25.46
-29.01
-33.48
-38.89
-44.87
-50.62
-55.04
-57.08
-56.08
-52.04
-45.59
-37.78
-29.71
-22.25
-15.86
-10.72
-6.87
-4.27
-2.92
-2.66
-3.24
-4.16
-4.90
-4.97
-4.07
-2.17
0.49
3.48
6.34
8.65
10.25
11.18
11.62
11.79
11.86
11.88
11.87
11.84
11.74
11.57
11.14
10.18
8.31
5.20
0.69
-5.01
-11.32
-17.23
-21.52
-23.05
-21.06
-15.56
-7.31
2.29
11.59
19.16
24.16
26.48
26.53
25.02
22.63
19.84
16.83
13.58
9.99
6.05
1.94
-2.00
-5.34
-7.69
-8.98
-9.39
-9.37
-9.41
-9.86
-10.83
-12.20
-13.80
-15.43
-17.05
-18.73
-20.62
-22.92
-25.80
-29.26
-32.95
-36.09
-37.61
-36.43
-31.88
-23.98
-13.47
-1.53
10.57
21.82
31.52
39.27
44.81
47.98
48.76
47.34
44.14
39.78
34.86
29.86
25.07
20.63
16.63
13.16
10.28
8.03
6.32
4.88
3.40
1.61
-0.67
-3.52
-6.98
-11.11
-15.95
-21.36
-27.02
-32.35
-36.68
-39.44
-40.27
-39.12
-36.15
-31.60
-25.74
-18.90
-11.50
-4.04
2.99
9.24
14.61
19.25
23.38
27.14
30.44
32.93
34.17
33.84
31.96
28.93
25.41
22.17
19.77
18.50
18.32
18.94
19.94
20.88
21.32
20.94
19.62
17.40
14.50
11.21
7.66
3.77
-0.75
-6.21
-12.67
-19.61
-25.96
-30.28
-31.17
-27.85
-20.43
-9.87
2.23
14.21
24.73
33.01
38.82
42.28
43.62
43.11
40.96
37.39
32.71
27.23
21.29
15.19
9.19
3.50
-1.70
-6.29
-10.21
-13.50
-16.28
-18.74
-21.15
-23.74
-26.67
-29.90
-33.18
-36.04
-38.11
-39.24
-39.67
-39.84
-40.03
-40.02
-38.93
-35.51
-28.58
-17.66
-3.18
13.64
31.10
47.57
61.78
72.85
80.26
83.78
83.41
79.45
72.49
63.47
53.45
43.53
34.55
26.97
20.78
15.51
10.52
5.15
-1.00
-7.93
-15.27
-22.56
-29.34
-35.42
-40.81
-45.68
-50.26
-54.77
-59.44
-64.48
-69.93
-75.46
-80.22
-83.01
-82.47
-77.65
-68.43
-55.64
-40.83
-25.82
-12.09
-0.49
8.75
15.86
21.11
24.72
26.70
27.09
26.05
23.94
21.26
18.53
16.10
14.17
12.71
11.58
10.60
9.61
8.47
7.12
5.56
3.84
2.06
0.33
-1.22
-2.49
-3.45
-4.22
-5.12
-6.66
-9.25
-12.98
-17.25
-20.79
-21.93
-19.19
-11.89
-0.45
13.68
28.61
42.58
54.48
63.97
71.28
76.78
80.74
83.21
84.06
83.18
80.62
76.62
71.63
66.14
60.58
55.15
49.82
44.38
38.59
32.39
25.91
19.47
13.40
7.86
2.77
-2.11
-7.17
-12.77
-19.16
-26.42
-34.35
-42.49
-50.03
-55.92
-59.04
-58.53
-54.09
-46.07
-35.51
-23.84
-12.56
-2.82
4.70
9.85
12.89
14.22
14.22
13.24
11.51
9.33
7.02
5.00
3.63
3.10
3.33
3.91
4.29
4.00
2.81
0.84
-1.56
-3.99
-6.24
-8.40
-10.76
-13.63
-17.27
-21.74
-26.96
-32.62
-38.12
-42.55
-44.81
-43.84
-39.12
-30.83
-19.95
-7.95
3.68
13.85
22.01
28.07
32.18
34.49
35.11
34.21
32.03
29.05
25.81
22.87
20.54
18.87
17.58
16.30
14.65
12.49
9.94
7.33
5.01
3.17
1.72
0.41
-1.18
-3.38
-6.44
-10.43
-15.27
-20.63
-25.83
-29.87
-31.61
-30.03
-24.72
-15.99
-4.90
7.09
18.53
28.42
36.21
41.75
45.06
46.18
45.11
41.99
37.20
31.43
25.48
20.13
15.91
12.99
11.17
10.00
8.91
7.39
5.08
1.88
-1.97
-6.08
-9.96
-13.27
-15.99
-18.45
-21.19
-24.76
-29.43
-35.05
-41.00
-46.37
-50.15
-51.53
-50.07
-45.81
-39.23
-31.05
-22.10
-13.11
-4.71
2.50
7.80
10.40
9.65
5.30
-2.17
-11.67
-21.62
-30.51
-37.32
-41.93
-45.18
-48.91
-55.47
-67.02
-84.57
-107.18
-131.72
-153.51
-167.75
-171.11
-162.81
-144.74
-120.56
-94.36
-69.48
-47.98
-30.63
-17.19
-6.78
1.93
10.56
20.69
33.45
49.22
67.44
86.80
105.59
122.05
134.64
142.15
143.91
139.85
130.60
117.40
101.94
85.94
70.86
57.63
46.55
37.52
30.17
24.07
18.82
14.07
9.48
4.78
-0.22
-5.54
-11.03
-16.41
-21.28
-25.23
-27.98
-29.45
-29.87
-29.69
-29.38
-29.16
-28.75
-27.36
-24.05
-18.21
-10.00
-0.40
9.21
17.67
24.49
29.91
34.51
38.59
41.89
43.62
43.03
39.84
34.55
28.23
22.00
16.60
12.08
8.01
3.84
-0.79
-5.83
-10.94
-15.73
-19.98
-23.75
-27.25
-30.69
-34.04
-37.14
-39.76
-41.88
-43.80
-46.04
-49.06
-52.89
-56.96
-60.14
-61.13
-58.90
-53.07
-44.04
-32.83
-20.76
-9.15
1.02
9.14
14.97
18.56
20.13
20.05
18.75
16.67
14.28
11.98
10.08
8.74
7.97
7.60
7.35
6.94
6.16
4.95
3.36
1.49
-0.59
-2.84
-5.24
-7.73
-10.20
-12.56
-14.84
-17.24
-20.09
-23.73
-28.27
-33.44
-38.47
-42.25
-43.60
-41.72
-36.45
-28.36
-18.55
-8.31
1.19
9.16
15.21
19.27
21.39
21.71
20.47
18.00
14.78
11.36
8.27
5.93
4.45
3.69
3.31
2.89
2.08
0.74
-1.16
-3.52
-6.29
-9.46
-13.08
-17.22
-21.91
-27.18
-33.03
-39.46
-46.42
-53.59
-60.33
-65.65
-68.46
-67.81
-63.27
-54.96
-43.52
-29.90
-15.15
-0.27
13.91
26.68
37.62
46.56
53.64
59.26
63.99
68.45
73.23
78.84
85.60
93.50
102.03
110.36
117.49
122.77
126.15
128.27
130.13
132.59
135.81
139.10
141.28
141.17
138.25
132.89
126.16
119.50
114.32
111.86
113.04
118.44
128.13
141.29
156.12
170.01
180.32
185.23
184.38
178.94
171.02
162.75
155.51
149.75
145.15
141.16
137.36
133.68
130.12
126.41
121.68
114.53
103.51
87.67
67.20
43.51
18.87
-4.33
-24.38
-40.63
-53.28
-62.90
-69.97
-74.56
-76.50
-75.61
-71.93
-65.45
-56.00
-43.07
-26.23
-5.63
17.46
40.59
60.68
75.01
82.16
82.42
77.47
69.47
60.08
50.01
39.05
26.73
12.94
-1.77
-16.38
-29.82
-41.52
-51.58
-60.70
-69.91
-80.19
-92.22
-106.21
-121.77
-137.88
-152.90
-164.89
-171.96
-172.78
-166.91
-155.02
-138.70
-120.12
-101.51
-84.65
-70.57
-59.42
-50.77
-43.98
-38.57
-34.40
-31.68
-30.69
-31.60
-34.37
-38.80
-44.67
-51.73
-59.78
-68.45
-77.22
-85.47
-92.59
-98.27
-102.54
-105.79
-108.50
-111.07
-113.69
-116.23
-118.45
-119.99
-120.58
-120.11
-118.65
-116.45
-113.94
-111.56
-109.74
-108.72
-108.47
-108.68
-108.79
-108.02
-105.60
-100.96
-93.92
-84.83
-74.50
-63.99
-54.40
-46.54
-40.92
-37.67
-36.65
-37.47
-39.50
-42.02
-44.17
-45.26
-44.93
-43.27
-40.83
-38.47
-37.01
-37.09
-38.93
-42.38
-46.95
-52.02
-56.98
-61.40
-65.09
-68.05
-70.39
-72.31
-73.99
-75.57
-77.17
-78.75
-80.07
-80.63
-79.79
-76.94
-71.79
-64.46
-55.60
-46.19
-37.26
-29.71
-24.12
-20.72
-19.41
-19.84
-21.50
-23.80
-26.16
-28.17
-29.51
-30.07
-29.85
-28.82
-26.97
-24.18
-20.29
-15.19
-8.89
-1.58
6.23
13.82
20.30
24.88
27.26
27.75
27.31
27.10
28.02
30.33
33.65
37.38
41.23
45.53
50.96
58.08
66.80
76.20
84.96
91.95
96.68
99.33
100.45
100.44
99.35
97.03
93.42
88.79
83.83
79.27
75.72
73.39
72.09
71.40
70.79
69.74
67.85
64.82
60.51
54.99
48.60
41.84
35.26
29.29
24.04
19.30
14.60
9.51
3.89
-1.86
-6.80
-9.65
-9.21
-4.81
3.47
14.78
27.83
41.30
54.26
66.26
77.21
87.11
95.74
102.73
107.63
110.19
110.69
109.87
108.84
108.73
110.35
113.90
119.00
124.76
130.06
133.72
134.71
132.31
126.27
116.89
104.90
91.29
76.95
62.39
47.64
32.46
16.72
0.84
-13.93
-25.71
-32.48
-32.75
-26.14
-13.53
3.24
21.95
40.63
57.76
72.34
83.51
90.35
91.94
87.68
77.65
62.91
45.31
27.11
10.37
-3.56
-14.22
-22.04
-27.93
-32.88
-37.63
-42.51
-47.44
-52.21
-56.66
-60.87
-65.05
-69.46
-74.25
-79.49
-85.07
-90.89
-96.68
-101.96
-105.93
-107.58
-105.99
-100.64
-91.69
-80.02
-66.96
-53.94
-42.15
-32.28
-24.63
-19.22
-15.88
-14.37
-14.33
-15.25
-16.47
-17.34
-17.38
-16.46
-14.81
-12.98
-11.52
-10.83
-10.99
-11.75
-12.77
-13.70
-14.40
-14.87
-15.27
-15.76
-16.51
-17.73
-19.59
-22.27
-25.66
-29.26
-32.13
-33.02
-30.81
-24.80
-15.10
-2.54
11.41
25.19
37.43
47.27
54.34
58.64
60.33
59.58
56.59
51.63
45.21
38.02
30.70
23.71
17.02
10.31
3.07
-5.06
-14.11
-23.89
-34.10
-44.59
-55.35
-66.45
-77.80
-89.02
-99.51
-108.61
-115.91
-121.38
-125.31
-128.03
-129.65
-129.73
-127.38
-121.43
-110.86
-95.32
-75.41
-52.63
-29.16
-7.27
11.21
25.24
34.57
39.49
40.43
37.66
31.33
21.72
9.57
-3.72
-16.31
-26.52
-33.40
-37.18
-39.07
-40.76
-43.72
-48.65
-55.41
-63.42
-72.05
-80.95
-90.03
-99.19
-108.24
-116.97
-125.42
-133.90
-142.66
-151.27
-158.01
-160.00
-153.92
-137.25
-109.22
-71.14
-25.84
23.29
73.17
121.31
165.61
204.04
234.66
255.99
267.59
270.48
266.88
259.52
250.65
241.55
232.34
222.56
211.76
199.92
187.57
175.46
164.28
154.47
146.17
139.13
132.49
124.55
112.83
94.67
68.17
33.12
-8.61
-53.44
-97.11
-135.71
-166.42
-187.63
-198.72
-199.81
-191.72
-176.02
-155.09
-131.82
-109.11
-89.22
-73.50
-62.19
-54.76
-50.31
-47.90
-46.81
-46.64
-47.12
-47.98
-48.90
-49.44
-49.30
-48.36
-46.80
-44.96
-43.17
-41.53
-39.92
-38.15
-36.10
-33.93
-32.06
-31.07
-31.59
-34.14
-38.93
-45.76
-53.78
-61.47
-66.86
-67.98
-63.51
-53.34
-38.60
-21.34
-3.87
11.93
24.90
34.65
41.28
45.07
46.28
45.19
42.17
37.75
32.57
27.24
22.31
18.08
14.73
12.20
10.26
8.55
6.65
4.17
0.87
-3.20
-7.80
-12.66
-17.59
-22.62
-28.01
-34.10
-41.14
-49.10
-57.63
-65.99
-73.16
-77.91
-79.12
-76.02
-68.44
-57.02
-42.99
-27.96
-13.37
-0.32
10.67
19.46
26.16
30.91
33.81
34.98
34.56
32.87
30.36
27.66
25.39
24.04
23.79
24.48
25.68
26.82
27.48
27.49
26.90
25.85
24.43
22.52
19.76
15.67
9.80
1.93
-7.79
-18.63
-29.27
-38.02
-43.13
-43.36
-38.36
-28.72
-15.96
-1.98
11.38
22.77
31.46
37.33
40.63
41.82
41.42
39.88
37.74
35.52
33.71
32.59
32.19
32.19
32.03
31.17
29.19
25.97
21.57
16.19
10.10
3.62
-2.87
-8.98
-14.51
-19.56
-24.62
-30.31
-37.07
-44.72
-52.25
-58.08
-60.51
-58.32
-51.23
-39.88
-25.61
-9.98
5.61
20.07
32.59
42.53
49.49
53.25
53.98
52.22
48.89
45.10
41.85
39.85
39.30
39.84
40.69
40.89
39.62
36.54
31.83
26.17
20.43
15.36
11.44
8.83
7.62
7.81
9.42
12.41
16.62
21.96
28.57
36.89
47.57
61.05
77.21
95.19
113.46
130.38
144.54
155.02
161.43
163.63
161.57
155.31
145.05
131.35
115.11
97.36
79.07
61.09
44.15
29.10
16.90
8.51
4.60
5.21
9.59
16.29
23.59
29.97
34.60
37.37
38.75
39.35
39.57
39.40
38.57
36.71
33.61
29.39
24.66
20.42
18.04
18.95
24.28
34.43
48.86
65.97
83.57
99.42
111.84
120.08
124.30
125.29
123.93
120.84
116.22
109.98
102.12
92.97
83.29
73.85
65.20
57.39
50.01
42.67
35.28
28.18
21.83
16.42
11.51
6.20
-0.46
-8.91
-19.00
-30.25
-42.42
-55.82
-71.10
-88.80
-108.66
-129.57
-149.88
-167.98
-182.92
-194.48
-202.97
-208.89
-212.72
-215.01
-216.42
-217.62
-219.00
-220.36
-220.90
-219.37
-214.79
-206.84
-196.05
-183.60
-170.80
-158.66
-147.66
-137.89
-129.16
-121.31
-114.25
-108.00
-102.59
-98.01
-94.28
-91.48
-89.89
-89.89
-91.70
-95.15
-99.26
-102.42
-102.67
-98.43
-89.02
-74.99
-57.81
-39.38
-21.33
-4.71
10.03
22.81
33.55
42.07
48.16
51.80
53.26
53.08
51.89
50.22
48.34
46.34
44.10
41.57
38.74
35.79
32.87
30.12
27.48
24.74
21.53
17.44
12.17
5.62
-1.91
-9.72
-16.66
-21.41
-22.79
-20.15
-13.57
-3.90
7.55
19.41
30.51
40.08
47.67
53.03
56.07
56.81
55.50
52.66
49.00
45.22
41.82
39.01
36.63
34.37
31.85
28.88
25.43
21.66
17.76
13.87
9.96
5.73
0.83
-5.12
-12.28
-20.36
-28.51
-35.46
-39.70
-39.96
-35.63
-26.99
-15.11
-1.54
12.08
24.47
34.73
42.46
47.43
49.66
49.35
46.97
43.26
39.06
35.07
31.68
28.91
26.47
24.02
21.35
18.43
15.40
12.48
9.75
7.18
4.53
1.39
-2.65
-8.00
-14.71
-22.36
-29.94
-36.05
-39.22
-38.37
-33.22
-24.35
-12.98
-0.63
11.36
22.06
30.88
37.46
41.55
42.96
41.78
38.47
33.82
28.84
24.42
20.98
18.47
16.47
14.36
11.78
8.65
5.24
1.92
-0.97
-3.34
-5.40
-7.57
-10.48
-14.67
-20.46
-27.71
-35.67
-42.98
-47.99
-49.15
-45.52
-37.09
-24.83
-10.34
4.59
18.46
30.28
39.51
45.93
49.50
50.30
48.68
45.30
41.04
36.88
33.50
31.18
29.70
28.51
27.01
24.78
21.72
17.98
13.90
9.82
5.95
2.28
-1.43
-5.56
-10.55
-16.68
-23.95
-31.85
-39.35
-45.00
-47.30
-45.19
-38.47
-27.87
-14.89
-1.30
11.34
22.03
30.32
36.11
39.48
40.47
39.30
36.40
32.54
28.70
25.80
24.38
24.46
25.53
26.77
27.40
26.90
25.16
22.39
19.02
15.46
11.99
8.70
5.49
2.11
-1.83
-6.76
-12.84
-19.80
-26.66
-31.82
-33.42
-29.94
-20.87
-6.99
9.82
27.17
42.96
55.98
66.11
73.91
80.12
85.19
89.27
92.32
94.58
96.63
99.27
103.12
108.36
114.83
122.24
130.72
140.85
153.22
167.67
182.91
196.94
207.96
215.31
219.47
221.38
221.21
217.77
208.87
192.60
168.47
137.74
102.71
65.62
28.05
-8.90
-43.74
-74.10
-97.10
-110.48
-113.77
-108.59
-98.00
-85.23
-72.67
-61.43
-51.61
-42.95
-35.30
-28.76
-23.48
-19.50
-16.69
-14.82
-13.76
-13.51
-14.30
-16.43
-20.17
-25.57
-32.42
-40.24
-48.59
-57.29
-66.64
-77.41
-90.54
-106.62
-125.44
-145.70
-165.22
-181.31
-191.49
-194.04
-188.60
-176.30
-159.40
-140.66
-122.45
-106.11
-91.76
-78.68
-65.90
-52.69
-38.51
-22.74
-4.51
16.98
41.66
68.08
93.49
114.78
129.71
137.85
140.49
139.77
137.41
134.10
129.51
122.96
114.06
102.94
90.08
76.01
61.19
46.15
31.65
18.57
7.73
-0.53
-6.43
-10.73
-14.49
-18.74
-24.23
-31.32
-39.83
-49.07
-57.86
-64.77
-68.46
-68.17
-63.96
-56.70
-47.65
-38.10
-28.78
-19.72
-10.24
0.66
13.73
28.94
44.97
59.28
68.67
70.28
62.81
47.24
26.74
5.71
-11.64
-22.59
-26.47
-24.37
-18.25
-10.12
-1.59
6.06
11.51
13.32
10.11
1.03
-13.67
-32.57
-53.39
-73.59
-91.15
-105.03
-115.12
-122.03
-126.65
-129.81
-132.19
-134.35
-136.83
-140.18
-144.81
-150.96
-158.49
-167.08
-176.28
-185.64
-194.66
-202.79
-209.48
-214.22
-216.90
-217.92
-218.25
-219.13
-221.80
-227.12
-235.65
-247.92
-264.78
-287.24
-315.70
-348.82
-382.80
-411.90
-429.99
-432.87
-419.92
-394.31
-361.60
-327.38
-295.44
-267.03
-241.56
-217.94
-195.67
-175.06
-156.68
-140.65
-126.36
-112.67
-98.59
-83.75
-68.52
-53.90
-40.84
-29.91
-21.01
-13.46
-6.30
1.27
9.62
18.65
27.89
36.75
44.78
51.86
58.16
64.10
70.17
76.76
84.09
92.13
100.65
109.23
117.49
125.14
132.23
139.09
146.34
154.67
164.59
176.24
189.31
203.28
217.53
231.70
245.78
260.10
275.27
292.18
311.92
335.48
363.07
393.45
423.49
448.56
463.82
465.91
454.14
430.81
400.17
366.91
334.69
305.55
280.04
257.89
238.54
221.23
205.05
188.89
171.76
153.27
133.86
114.71
97.17
82.29
70.26
60.39
51.40
41.86
30.77
17.97
4.34
-8.34
-17.94
-22.68
-21.81
-15.91
-6.84
2.98
11.24
16.35
17.74
15.65
10.76
3.85
-4.38
-13.35
-22.57
-31.56
-39.88
-47.14
-53.14
-57.84
-61.40
-64.22
-66.79
-69.65
-73.19
-77.53
-82.51
-87.75
-92.89
-97.71
-102.22
-106.62
-111.18
-116.14
-121.73
-128.14
-135.48
-143.53
-151.47
-157.84
-160.75
-158.55
-150.46
-137.05
-120.06
-101.91
-84.87
-70.49
-59.48
-51.79
-46.98
-44.48
-43.77
-44.43
-46.07
-48.22
-50.21
-51.19
-50.17
-46.32
-39.34
-29.61
-18.30
-6.95
2.90
10.31
15.12
18.00
20.16
22.89
27.16
33.29
40.82
48.65
55.41
59.99
61.94
61.69
60.40
59.64
60.85
64.96
72.10
81.74
92.81
104.11
114.53
123.30
130.01
134.48
136.67
136.68
134.66
130.90
125.86
120.15
114.40
109.08
104.37
100.09
95.75
90.75
84.55
76.81
67.53
56.95
45.56
33.91
22.57
12.03
2.55
-6.00
-14.08
-22.33
-31.23
-40.59
-49.43
-56.20
-59.43
-58.50
-53.81
-46.56
-38.01
-28.70
-18.41
-6.58
6.88
21.07
34.13
44.01
49.24
49.47
45.40
38.28
29.45
19.92
10.36
1.16
-7.48
-15.54
-23.23
-30.96
-39.33
-49.01
-60.60
-74.47
-90.49
-107.93
-125.48
-141.51
-154.42
-162.94
-166.13
-163.35
-154.10
-138.21
-116.16
-89.35
-60.10
-31.14
-4.91
17.08
34.49
47.89
58.14
65.89
71.43
74.78
76.04
75.67
74.35
72.75
71.16
69.31
66.47
61.88
55.12
46.50
36.97
27.82
20.14
14.41
10.36
7.20
3.94
-0.24
-5.86
-13.11
-21.89
-31.82
-42.01
-51.08
-57.27
-58.92
-55.05
-45.83
-32.57
-17.38
-2.45
10.57
20.86
28.32
33.34
36.34
37.59
37.24
35.52
32.85
29.85
27.18
25.32
24.36
23.95
23.52
22.46
20.40
17.28
13.42
9.30
5.41
2.08
-0.69
-3.23
-6.08
-9.88
-15.06
-21.70
-29.40
-37.28
-44.06
-48.30
-48.73
-44.64
-36.21
-24.56
-11.46
1.21
12.04
20.38
26.30
30.21
32.50
33.27
32.55
30.48
27.54
24.52
22.19
20.97
20.69
20.77
20.44
19.19
16.89
13.82
10.45
7.21
4.28
1.53
-1.29
-4.58
-8.65
-13.76
-20.04
-27.40
-35.42
-43.26
-49.62
-53.04
-52.29
-46.78
-36.86
-23.71
-9.07
5.29
18.03
28.30
35.79
40.45
42.40
41.89
39.36
35.55
31.40
27.77
25.23
23.84
23.13
22.40
20.99
18.51
14.99
10.75
6.30
2.01
-1.90
-5.52
-9.15
-13.28
-18.41
-24.91
-32.81
-41.61
-50.22
-57.10
-60.55
-59.29
-52.83
-41.67
-27.23
-11.40
3.97
17.48
28.34
36.35
41.61
44.36
44.88
43.53
40.82
37.44
34.08
31.29
29.28
27.90
26.73
25.26
23.12
20.21
16.67
12.85
9.12
5.67
2.48
-0.77
-4.52
-9.27
-15.31
-22.68
-31.08
-39.85
-47.97
-54.19
-57.16
-55.79
-49.59
-38.94
-25.09
-9.86
4.87
17.63
27.69
34.94
39.68
42.25
42.92
41.83
39.21
35.52
31.49
27.91
25.44
24.32
24.28
24.63
24.47
23.13
20.40
16.54
12.18
7.97
4.25
0.95
-2.32
-6.05
-10.60
-16.08
-22.39
-29.28
-36.31
-42.77
-47.57
-49.45
-47.30
-40.62
-29.89
-16.47
-2.28
10.86
21.67
29.58
34.64
37.14
37.45
35.87
32.78
28.75
24.49
20.75
18.14
16.83
16.50
16.51
16.08
14.61
11.95
8.34
4.33
0.49
-2.87
-5.79
-8.66
-12.02
-16.35
-21.92
-28.64
-36.01
-43.08
-48.53
-50.92
-49.07
-42.53
-31.74
-18.09
-3.47
10.24
21.73
30.31
35.90
38.76
39.20
37.61
34.45
30.36
26.11
22.47
19.92
18.58
18.15
18.05
17.63
16.44
14.33
11.48
8.24
4.97
1.88
-1.03
-3.93
-7.09
-10.81
-15.37
-21.01
-27.81
-35.47
-43.15
-49.45
-52.71
-51.50
-45.21
-34.34
-20.38
-5.35
8.86
20.87
30.07
36.40
40.13
41.57
41.06
38.97
35.84
32.32
29.10
26.74
25.44
25.12
25.38
25.70
25.64
24.91
23.43
21.32
18.77
15.99
13.08
10.05
6.79
3.14
-1.09
-6.06
-11.90
-18.57
-25.75
-32.68
-38.25
-41.13
-40.27
-35.27
-26.58
-15.45
-3.50
7.70
17.02
23.90
28.21
30.08
29.75
27.59
24.13
20.06
16.12
12.93
10.82
9.74
9.40
9.33
9.10
8.40
7.05
4.99
2.23
-1.09
-4.79
-8.58
-12.26
-15.65
-18.81
-21.93
-25.28
-29.17
-33.79
-39.14
-44.87
-50.27
-54.31
-55.77
-53.66
-47.57
-37.91
-25.87
-13.13
-1.35
8.24
15.01
18.99
20.55
20.21
18.52
15.95
13.00
10.14
7.78
6.20
5.48
5.46
5.83
6.22
6.35
6.05
5.24
3.91
1.99
-0.56
-3.70
-7.22
-10.70
-13.77
-16.19
-18.11
-20.05
-22.72
-26.65
-31.90
-37.78
-43.03
-46.07
-45.55
-40.70
-31.60
-19.19
-4.95
9.43
22.46
33.05
40.67
45.24
47.08
46.69
44.66
41.60
38.01
34.34
30.95
28.09
25.95
24.54
23.69
23.07
22.26
20.87
18.70
15.75
12.29
8.65
5.07
1.60
-1.94
-5.79
-10.12
-15.00
-20.34
-26.02
-31.91
-37.74
-42.98
-46.65
-47.55
-44.59
-37.34
-26.35
-13.10
0.41
12.25
21.15
26.60
28.77
28.23
25.63
21.63
16.89
12.08
7.81
4.57
2.49
1.43
1.01
0.72
0.14
-1.03
-2.93
-5.57
-8.77
-12.28
-15.72
-18.72
-21.02
-22.53
-23.38
-23.87
-24.38
-25.35
-27.12
-29.85
-33.31
-36.85
-39.40
-39.70
-36.76
-30.19
-20.44
-8.68
3.55
14.84
24.27
31.56
36.86
40.42
42.42
42.83
41.60
38.90
35.16
31.10
27.43
24.62
22.69
21.30
19.94
18.21
15.97
13.31
10.47
7.65
4.88
2.02
-1.20
-5.02
-9.65
-15.23
-21.70
-28.87
-36.26
-43.04
-48.07
-50.17
-48.37
-42.34
-32.58
-20.36
-7.37
4.79
15.00
22.79
28.24
31.66
33.40
33.71
32.76
30.74
27.95
24.80
21.73
19.08
17.08
15.69
14.71
13.77
12.49
10.56
7.94
4.81
1.53
-1.57
-4.31
-6.75
-9.12
-11.73
-14.86
-18.77
-23.60
-29.34
-35.61
-41.56
-45.88
-47.11
-44.15
-36.69
-25.46
-12.01
1.77
14.17
24.08
31.09
35.32
37.12
36.95
35.22
32.34
28.79
25.11
21.78
19.08
17.07
15.57
14.30
13.01
11.56
9.94
8.16
6.12
3.62
0.48
-3.35
-7.64
-12.03
-16.15
-19.86
-23.31
-26.85
-30.89
-35.68
-41.23
-47.19
-52.86
-57.17
-58.90
-56.93
-50.72
-40.55
-27.61
-13.67
-0.56
10.34
18.38
23.59
26.33
27.10
26.30
24.27
21.43
18.29
15.46
13.39
12.22
11.78
11.68
11.50
10.99
10.15
9.08
7.94
6.69
5.19
3.22
0.65
-2.47
-5.90
-9.35
-12.59
-15.55
-18.32
-21.13
-24.27
-27.96
-32.28
-36.97
-41.35
-44.33
-44.66
-41.32
-33.99
-23.20
-10.26
3.09
15.25
25.09
32.17
36.59
38.75
39.07
37.93
35.68
32.65
29.31
26.10
23.40
21.30
19.66
18.15
16.44
14.34
11.82
9.02
6.05
2.98
-0.20
-3.51
-6.90
-10.26
-13.53
-16.79
-20.24
-24.21
-29.04
-34.97
-42.09
-50.22
-58.83
-66.88
-72.93
-75.43
-73.11
-65.54
-53.34
-38.09
-21.84
-6.54
6.41
16.31
23.08
27.00
28.57
28.37
26.99
25.07
23.14
21.65
20.81
20.61
20.87
21.33
21.70
21.73
21.25
20.17
18.49
16.30
13.66
10.61
7.15
3.23
-1.11
-5.75
-10.49
-15.16
-19.66
-24.08
-28.47
-32.67
-36.08
-37.69
-36.40
-31.47
-22.94
-11.77
0.48
12.19
22.13
29.81
35.36
39.21
41.76
43.18
43.49
42.74
41.15
39.03
36.72
34.35
31.82
28.99
25.80
22.42
19.21
16.50
14.40
12.67
10.86
8.55
5.47
1.67
-2.60
-7.04
-11.46
-15.78
-20.18
-24.96
-30.52
-37.18
-44.95
-53.24
-60.86
-66.19
-67.62
-64.11
-55.61
-43.14
-28.55
-13.88
-0.96
9.05
15.69
19.13
19.92
18.87
16.83
14.54
12.64
11.49
11.24
11.81
12.97
14.34
15.54
16.26
16.30
15.62
14.32
12.55
10.52
8.36
6.11
3.78
1.33
-1.32
-4.18
-7.33
-10.88
-14.96
-19.73
-25.18
-31.04
-36.61
-40.84
-42.51
-40.62
-34.75
-25.31
-13.44
-0.69
11.38
21.58
29.28
34.44
37.35
38.47
38.23
36.98
34.98
32.51
29.82
27.18
24.80
22.79
21.06
19.45
17.74
15.78
13.50
10.90
8.01
4.85
1.43
-2.23
-6.07
-10.03
-14.06
-18.19
-22.55
-27.35
-32.83
-39.05
-45.77
-52.28
-57.42
-59.81
-58.21
-51.98
-41.36
-27.56
-12.37
2.31
14.91
24.59
31.14
34.84
36.14
35.52
33.44
30.43
27.07
23.96
21.52
19.90
18.96
18.33
17.68
16.81
15.71
14.47
13.13
11.56
9.48
6.63
2.88
-1.56
-6.27
-10.76
-14.71
-18.18
-21.61
-25.68
-30.91
-37.39
-44.50
-50.99
-55.25
-55.80
-51.71
-43.01
-30.62
-16.20
-1.68
11.25
21.45
28.51
32.56
34.13
33.84
32.31
30.10
27.68
25.44
23.64
22.33
21.46
20.81
20.18
19.41
18.40
17.09
15.47
13.54
11.31
8.81
6.07
3.09
-0.16
-3.75
-7.73
-12.13
-17.03
-22.52
-28.68
-35.38
-42.08
-47.76
-51.05
-50.63
-45.72
-36.42
-23.82
-9.67
4.13
16.02
25.13
31.23
34.63
35.79
35.26
33.48
30.83
27.70
24.42
21.33
18.72
16.72
15.35
14.39
13.61
12.71
11.46
9.74
7.51
4.81
1.71
-1.70
-5.31
-9.01
-12.70
-16.37
-20.12
-24.18
-28.81
-34.20
-40.27
-46.42
-51.57
-54.33
-53.35
-47.89
-38.08
-25.01
-10.48
3.60
15.70
24.93
31.10
34.51
35.74
35.40
34.01
32.02
29.72
27.36
25.12
23.12
21.43
20.00
18.74
17.54
16.30
14.98
13.53
11.87
9.80
7.14
3.70
-0.50
-5.24
-10.16
-14.90
-19.27
-23.37
-27.53
-32.20
-37.68
-43.78
-49.67
-53.97
-55.08
-51.80
-43.82
-31.91
-17.69
-3.16
9.99
20.68
28.49
33.51
36.05
36.50
35.32
33.04
30.32
27.75
25.77
24.52
23.83
23.42
22.98
22.36
21.61
20.86
20.22
19.62
18.78
17.30
14.84
11.29
6.79
1.75
-3.39
-8.24
-12.63
-16.63
-20.48
-24.55
-29.24
-34.84
-41.29
-47.99
-53.80
-57.22
-56.82
-51.79
-42.25
-29.31
-14.73
-0.42
12.02
21.62
28.06
31.52
32.45
31.48
29.20
26.21
23.03
20.09
17.73
16.09
15.18
14.78
14.58
14.27
13.65
12.70
11.57
10.40
9.23
7.88
6.03
3.33
-0.35
-4.84
-9.70
-14.43
-18.61
-22.16
-25.27
-28.35
-31.84
-36.06
-41.00
-46.24
-51.00
-54.15
-54.56
-51.38
-44.43
-34.30
-22.22
-9.75
1.69
11.12
18.07
22.49
24.60
24.73
23.35
21.04
18.46
16.24
14.85
14.43
14.85
15.79
16.82
17.64
18.05
17.91
17.16
15.73
13.54
10.62
7.05
3.13
-0.78
-4.29
-7.20
-9.56
-11.73
-14.20
-17.44
-21.67
-26.69
-31.91
-36.34
-38.82
-38.25
-33.94
-25.82
-14.60
-1.68
11.28
22.76
31.81
38.19
42.21
44.41
45.20
44.85
43.44
41.16
38.31
35.32
32.61
30.40
28.68
27.24
25.84
24.28
22.47
20.43
18.10
15.40
12.21
8.47
4.26
-0.23
-4.71
-8.97
-12.97
-16.82
-20.80
-25.23
-30.35
-36.14
-42.21
-47.68
-51.31
-51.75
-48.09
-40.14
-28.67
-15.24
-1.71
10.29
19.78
26.51
30.82
33.35
34.64
35.09
34.88
34.19
33.22
32.34
31.90
32.19
33.22
34.71
36.15
36.95
36.64
34.94
31.79
27.24
21.44
14.63
7.10
-0.71
-8.32
-15.30
-21.40
-26.77
-31.90
-37.48
-44.04
-51.61
-59.53
-66.48
-70.82
-71.14
-66.71
-57.76
-45.41
-31.39
-17.52
-5.29
4.37
11.16
15.20
16.90
16.72
15.13
12.59
9.57
6.57
4.07
2.45
1.80
1.93
2.34
2.44
1.70
-0.12
-2.88
-6.23
-9.70
-12.95
-15.88
-18.63
-21.48
-24.75
-28.70
-33.56
-39.40
-46.06
-52.92
-58.88
-62.55
-62.56
-58.07
-49.12
-36.70
-22.44
-8.15
4.65
15.02
22.64
27.55
30.02
30.34
28.83
25.89
22.08
18.06
14.50
11.91
10.47
10.04
10.21
10.44
10.25
9.29
7.45
4.82
1.57
-2.08
-5.97
-9.96
-14.02
-18.12
-22.33
-26.77
-31.70
-37.40
-44.02
-51.28
-58.35
-63.82
-66.02
-63.60
-56.02
-43.88
-28.77
-12.79
2.12
14.62
24.17
30.88
35.12
37.29
37.70
36.65
34.57
31.95
29.38
27.28
25.85
25.02
24.54
24.16
23.60
22.68
21.23
19.13
16.28
12.66
8.38
3.64
-1.25
-6.01
-10.45
-14.59
-18.66
-23.10
-28.42
-34.97
-42.71
-50.98
-58.50
-63.56
-64.47
-60.12
-50.45
-36.54
-20.28
-3.84
10.94
23.01
32.07
38.31
42.07
43.64
43.32
41.53
38.88
36.13
33.89
32.44
31.63
31.05
30.24
29.01
27.44
25.82
24.39
23.13
21.76
19.82
16.92
12.96
8.17
3.06
-1.87
-6.25
-10.09
-13.67
-17.49
-22.07
-27.80
-34.75
-42.56
-50.33
-56.74
-60.23
-59.48
-53.79
-43.43
-29.59
-14.06
1.27
14.88
25.92
34.16
39.75
43.00
44.20
43.66
41.76
39.03
36.15
33.72
32.12
31.41
31.35
31.61
31.86
31.95
31.82
31.44
30.63
29.14
26.67
23.06
18.40
13.00
7.35
1.92
-2.99
-7.38
-11.57
-16.10
-21.52
-28.14
-35.74
-43.40
-49.69
-52.94
-51.79
-45.67
-35.06
-21.34
-6.41
7.80
19.86
28.99
35.05
38.32
39.22
38.19
35.66
32.11
28.13
24.37
21.39
19.56
18.93
19.23
20.00
20.74
20.96
20.33
18.64
15.89
12.21
7.88
3.18
-1.66
-6.55
-11.49
-16.56
-21.80
-27.32
-33.25
-39.66
-46.43
-52.97
-58.15
-60.52
-58.69
-52.01
-40.88
-26.75
-11.66
2.42
14.14
22.96
29.05
32.84
34.80
35.23
34.37
32.50
30.06
27.54
25.38
23.83
22.88
22.35
21.98
21.58
20.98
20.08
18.75
16.84
14.17
10.61
6.19
1.08
-4.37
-9.80
-14.93
-19.65
-24.11
-28.70
-33.91
-40.08
-47.18
-54.48
-60.62
-63.83
-62.57
-56.01
-44.54
-29.68
-13.57
1.68
14.60
24.61
31.85
36.77
39.80
41.20
41.11
39.80
37.72
35.43
33.42
31.93
30.91
30.06
29.15
28.01
26.68
25.25
23.76
22.03
19.75
16.61
12.48
7.50
2.02
-3.40
-8.31
-12.45
-15.89
-19.00
-22.38
-26.62
-32.07
-38.61
-45.50
-51.47
-54.99
-54.73
-49.96
-40.85
-28.47
-14.41
-0.36
12.29
22.67
30.42
35.55
38.21
38.69
37.40
34.89
31.95
29.37
27.78
27.45
28.19
29.49
30.69
31.26
30.97
29.89
28.25
26.28
24.10
21.65
18.78
15.31
11.17
6.41
1.25
-3.96
-8.88
-13.17
-16.75
-19.78
-22.64
-25.87
-29.95
-35.07
-41.02
-46.99
-51.70
-53.72
-51.83
-45.56
-35.32
-22.35
-8.36
4.97
16.44
25.40
31.74
35.61
37.32
37.25
35.85
33.68
31.33
29.32
28.05
27.57
27.73
28.14
28.36
28.08
27.20
25.83
24.20
22.49
20.69
18.64
16.14
13.06
9.48
5.63
1.79
-1.85
-5.25
-8.48
-11.74
-15.28
-19.41
-24.32
-29.96
-35.91
-41.24
-44.69
-45.01
-41.34
-33.63
-22.71
-10.06
2.59
13.72
22.34
28.07
31.06
31.75
30.68
28.31
25.12
21.55
18.05
15.03
12.82
11.55
11.17
11.44
12.05
12.61
12.77
12.28
10.98
8.83
5.86
2.17
-2.08
-6.68
-11.37
-15.90
-20.13
-24.08
-28.03
-32.41
-37.61
-43.63
-49.91
-55.23
-58.05
-56.98
-51.34
-41.45
-28.62
-14.70
-1.48
9.72
18.30
24.19
27.63
28.89
28.29
26.23
23.30
20.20
17.55
15.71
14.74
14.39
14.35
14.32
14.21
13.95
13.48
12.64
11.19
8.88
5.58
1.37
-3.47
-8.56
-13.53
-18.17
-22.49
-26.62
-30.85
-35.44
-40.57
-46.14
-51.67
-56.26
-58.67
-57.66
-52.53
-43.39
-31.26
-17.80
-4.74
6.56
15.41
21.63
25.35
26.82
26.38
24.54
22.09
19.94
18.90
19.32
21.05
23.49
25.90
27.70
28.67
28.95
28.91
28.96
29.35
30.12
30.98
31.42
30.79
28.53
24.33
18.21
10.55
1.88
-7.23
-16.42
-25.62
-35.00
-44.69
-54.61
-64.12
-72.15
-77.37
-78.65
-75.53
-68.46
-58.62
-47.59
-36.75
-27.03
-18.79
-12.07
-6.82
-3.06
-0.86
-0.18
-0.70
-1.86
-2.95
-3.43
-3.05
-1.98
-0.70
0.16
0.15
-0.91
-2.76
-4.89
-6.65
-7.50
-7.10
-5.33
-2.32
1.58
5.76
9.42
11.76
12.24
10.80
8.03
4.91
2.54
1.74
2.88
5.96
10.72
16.87
24.03
31.74
39.30
45.92
50.79
53.42
53.76
52.15
49.23
45.70
42.16
38.96
36.21
33.86
31.74
29.75
27.83
26.06
24.56
23.43
22.69
22.24
21.87
21.32
20.29
18.45
15.50
11.17
5.41
-1.57
-9.22
-16.80
-23.59
-29.09
-33.27
-36.38
-38.81
-40.74
-41.97
-41.91
-39.84
-35.27
-28.17
-19.09
-8.93
1.24
10.45
17.88
22.91
25.15
24.50
21.20
15.89
9.38
2.44
-4.38
-10.88
-17.04
-22.87
-28.25
-32.93
-36.63
-39.14
-40.50
-40.92
-40.67
-40.02
-39.11
-38.01
-36.70
-35.26
-33.83
-32.59
-31.69
-31.17
-31.01
-31.19
-31.72
-32.61
-33.72
-34.51
-34.00
-31.00
-24.41
-13.79
0.46
17.12
34.45
50.60
63.98
73.50
78.71
79.79
77.49
73.01
67.74
62.94
59.49
57.79
57.76
58.99
60.90
62.86
64.25
64.54
63.34
60.56
56.32
50.92
44.67
37.75
30.17
21.81
12.59
2.58
-7.92
-18.46
-28.66
-38.28
-47.35
-55.88
-63.67
-70.02
-73.77
-73.62
-68.64
-58.80
-45.13
-29.43
-13.72
0.43
12.25
21.79
29.56
36.14
41.97
47.24
52.02
56.37
60.37
64.20
68.13
72.53
77.77
84.14
91.54
99.43
106.91
112.97
116.81
118.12
116.94
113.46
107.76
99.72
89.14
76.07
60.92
44.50
27.87
12.14
-1.64
-12.48
-19.52
-22.18
-20.40
-14.91
-7.21
0.73
7.01
10.48
11.23
10.43
9.64
9.95
11.23
12.29
11.57
8.15
2.39
-4.33
-10.39
-14.90
-18.03
-20.82
-24.23
-28.56
-33.30
-37.63
-41.15
-44.23
-47.78
-52.57
-58.77
-65.77
-72.65
-78.73
-83.91
-88.68
-93.69
-99.21
-104.73
-109.04
-110.69
-108.53
-102.31
-92.73
-81.18
-69.29
-58.34
-48.89
-40.78
-33.31
-25.78
-17.88
-9.99
-3.08
1.76
3.74
2.77
-0.56
-5.24
-10.25
-14.86
-18.69
-21.57
-23.48
-24.38
-24.41
-23.96
-23.74
-24.64
-27.45
-32.53
-39.75
-48.53
-58.16
-67.99
-77.61
-86.71
-94.92
-101.60
-105.87
-106.93
-104.44
-98.72
-90.61
-81.13
-71.06
-60.71
-50.12
-39.34
-28.69
-18.76
-10.08
-2.96
2.71
7.34
11.31
14.79
17.76
20.13
21.89
23.24
24.48
25.88
27.59
29.59
31.73
33.83
35.72
37.29
38.45
39.06
38.90
37.73
35.35
31.76
27.28
22.51
18.30
15.58
15.22
17.89
23.99
33.42
45.55
59.18
72.68
84.32
92.67
96.98
97.31
94.47
89.74
84.37
79.30
74.75
70.19
64.35
55.56
42.07
22.55
-3.48
-35.27
-70.55
-105.76
-136.56
-158.83
-169.78
-168.70
-157.16
-138.38
-116.19
-94.00
-74.20
-58.06
-46.04
-38.03
-33.46
-31.15
-29.43
-26.39
-20.48
-11.10
1.19
14.88
28.01
38.89
46.49
50.60
51.72
50.72
48.53
45.88
43.16
40.43
37.54
34.29
30.70
26.99
23.51
20.58
18.25
16.28
14.27
11.88
9.04
5.99
3.16
0.94
-0.49
-1.27
-1.81
-2.59
-4.00
-6.33
-9.67
-13.99
-19.09
-24.47
-29.35
-32.66
-33.34
-30.64
-24.51
-15.61
-5.20
5.25
14.56
21.94
27.16
30.27
31.45
30.94
29.11
26.54
24.01
22.36
22.18
23.59
26.24
29.35
32.09
33.77
34.09
33.10
31.11
28.49
25.51
22.26
18.66
14.56
9.88
4.61
-1.20
-7.54
-14.41
-21.69
-28.96
-35.42
-39.91
-41.29
-38.90
-32.89
-24.31
-14.77
-5.95
0.95
5.47
7.89
8.85
8.98
8.65
7.89
6.54
4.54
2.06
-0.47
-2.52
-3.75
-4.20
-4.31
-4.67
-5.75
-7.68
-10.23
-13.08
-15.99
-18.95
-22.17
-25.81
-29.95
-34.46
-39.21
-44.16
-49.45
-55.22
-61.29
-66.97
-71.03
-72.06
-68.91
-61.23
-49.59
-35.36
-20.32
-6.11
6.13
15.91
23.28
28.54
32.11
34.40
35.75
36.47
36.77
36.79
36.55
36.05
35.31
34.43
33.57
32.83
32.25
31.76
31.29
30.81
30.34
29.90
29.40
28.71
27.74
26.62
25.71
25.45
26.09
27.52
29.27
30.81
32.00
33.22
35.44
39.71
46.73
56.57
68.56
81.59
94.34
105.57
114.17
119.34
120.66
118.31
113.07
106.22
99.15
92.95
88.03
84.14
80.60
76.58
71.53
65.22
57.70
49.19
39.96
30.28
20.36
10.33
0.22
-10.08
-20.73
-31.98
-43.98
-56.92
-70.86
-85.79
-101.52
-117.62
-133.38
-147.81
-159.74
-167.96
-171.44
-169.54
-162.24
-150.23
-134.84
-117.85
-101.04
-85.86
-73.13
-62.97
-55.03
-48.71
-43.46
-38.86
-34.69
-30.85
-27.36
-24.27
-21.58
-19.22
-17.06
-14.86
-12.49
-9.90
-7.29
-4.97
-3.33
-2.64
-2.96
-4.17
-5.98
-8.06
-10.21
-12.35
-14.57
-17.12
-20.29
-24.36
-29.37
-35.06
-40.68
-45.10
-47.04
-45.43
-39.84
-30.64
-18.98
-6.45
5.38
15.35
22.85
27.79
30.43
31.13
30.23
28.04
24.90
21.18
17.33
13.75
10.77
8.55
7.06
6.13
5.49
4.86
3.97
2.55
0.42
-2.47
-6.06
-10.10
-14.28
-18.34
-22.11
-25.68
-29.27
-33.24
-37.91
-43.46
-49.77
-56.30
-62.11
-66.00
-66.85
-63.98
-57.49
-48.26
-37.69
-27.28
-18.15
-10.82
-5.23
-1.06
1.95
3.81
4.34
3.44
1.44
-0.95
-2.76
-3.15
-1.71
1.42
5.82
11.02
16.79
23.04
29.61
36.00
41.27
44.36
44.41
41.24
35.34
27.76
19.69
12.05
5.29
-0.58
-5.89
-11.10
-16.59
-22.44
-28.34
-33.49
-36.74
-36.84
-32.88
-24.66
-12.79
1.43
16.44
30.87
43.87
55.14
64.74
72.83
79.49
84.64
88.20
90.24
91.01
90.99
90.69
90.50
90.57
90.80
90.90
90.57
89.61
88.03
86.03
83.93
81.99
80.40
79.23
78.44
78.03
77.96
78.11
78.24
77.96
76.78
74.32
70.36
65.04
58.75
52.11
45.87
40.83
37.71
37.00
38.85
42.86
48.09
53.25
56.99
58.30
56.67
52.18
45.29
36.65
26.91
16.55
5.86
-5.03
-16.13
-27.43
-38.90
-50.42
-61.75
-72.59
-82.59
-91.42
-98.74
-104.34
-108.23
-110.85
-113.01
-115.74
-119.80
-125.28
-131.35
-136.56
-139.44
-139.13
-135.73
-130.10
-123.25
-115.70
-107.17
-96.87
-84.03
-68.53
-51.16
-33.39
-16.87
-2.84
8.18
16.35
22.26
26.43
29.09
30.13
29.29
26.53
22.22
17.18
12.45
8.92
7.05
6.80
7.73
9.18
10.52
11.25
10.98
9.48
6.58
2.22
-3.63
-10.89
-19.44
-29.06
-39.31
-49.51
-58.65
-65.53
-68.97
-68.10
-62.64
-53.00
-40.28
-25.95
-11.58
1.50
12.42
20.86
26.91
30.91
33.26
34.24
34.04
32.77
30.60
27.75
24.53
21.20
17.87
14.49
10.85
6.78
2.24
-2.66
-7.71
-12.83
-18.10
-23.84
-30.42
-38.16
-47.04
-56.73
-66.64
-76.07
-84.30
-90.59
-94.17
-94.14
-89.70
-80.43
-66.64
-49.53
-30.96
-12.96
2.86
15.65
25.39
32.58
37.80
41.48
43.74
44.62
44.20
42.75
40.65
38.34
36.17
34.30
32.71
31.17
29.47
27.46
25.23
23.13
21.62
20.94
20.89
20.82
19.78
17.00
12.15
5.53
-2.10
-9.91
-17.15
-23.18
-27.38
-29.01
-27.34
-21.97
-13.13
-1.77
10.66
22.61
32.90
40.97
46.77
50.55
52.64
53.31
52.73
51.09
48.71
45.99
43.38
41.24
39.71
38.70
37.89
36.92
35.55
33.78
31.80
29.89
28.22
26.82
25.53
24.12
22.41
20.25
17.53
14.07
9.77
4.65
-0.92
-6.24
-10.27
-11.96
-10.55
-5.76
2.03
11.99
23.00
33.99
44.11
52.81
59.83
65.12
68.79
71.12
72.58
73.70
75.05
76.99
79.51
82.15
84.00
83.91
80.71
73.57
62.21
46.99
28.83
8.94
-11.48
-31.44
-50.21
-67.30
-82.30
-94.85
-104.69
-111.65
-115.67
-116.71
-114.64
-109.18
-100.21
-87.90
-73.02
-56.77
-40.60
-25.79
-13.20
-3.20
4.23
9.28
12.17
13.08
12.17
9.63
5.68
0.65
-5.12
-11.26
-17.41
-23.29
-28.64
-33.27
-36.97
-39.58
-40.99
-41.12
-40.06
-38.04
-35.43
-32.68
-30.25
-28.53
-27.59
-27.14
-26.39
-24.24
-19.57
-11.69
-0.55
13.12
28.09
43.00
56.72
68.54
78.20
85.75
91.48
95.84
99.49
103.16
107.42
112.40
117.50
121.46
122.69
119.78
112.11
100.08
85.07
69.00
53.73
40.58
30.00
21.66
14.80
8.64
2.67
-3.25
-9.02
-14.43
-19.22
-22.97
-25.09
-24.81
-21.55
-15.27
-6.65
3.07
12.54
20.92
28.13
34.70
41.22
47.78
53.70
57.74
58.68
55.88
49.65
41.16
31.96
23.47
16.47
10.94
6.28
1.72
-3.16
-8.19
-12.70
-15.83
-16.97
-16.12
-13.84
-11.09
-8.88
-7.95
-8.71
-11.22
-15.30
-20.47
-26.05
-31.17
-34.91
-36.57
-35.80
-32.73
-27.86
-21.85
-15.48
-9.41
-4.36
-1.03
-0.13
-2.11
-7.03
-14.28
-22.70
-30.83
-37.36
-41.50
-43.19
-42.97
-41.72
-40.34
-39.49
-39.49
-40.33
-41.69
-43.07
-43.82
-43.29
-40.90
-36.31
-29.42
-20.34
-9.33
3.29
17.18
31.91
47.01
62.04
76.71
90.93
104.78
118.29
131.26
143.01
152.45
158.21
159.05
154.06
143.06
126.58
105.79
82.20
57.32
32.40
8.48
-13.55
-32.75
-48.09
-58.73
-64.34
-65.49
-63.57
-60.46
-57.94
-57.23
-58.77
-62.42
-67.66
-73.88
-80.40
-86.29
-90.38
-91.37
-88.29
-80.77
-69.43
-55.65
-41.13
-27.30
-14.98
-4.22
5.34
14.25
22.82
31.14
39.13
46.74
54.11
61.51
69.31
77.73
86.69
95.83
104.54
112.08
117.70
120.74
120.72
117.38
110.76
101.15
89.06
75.13
59.98
44.24
28.51
13.56
0.36
-10.06
-16.96
-20.18
-20.35
-18.75
-16.83
-15.70
-15.76
-16.78
-18.21
-19.62
-21.10
-23.18
-26.65
-32.17
-39.96
-49.80
-61.08
-73.02
-84.67
-95.11
-103.37
-108.61
-110.30
-108.48
-103.84
-97.65
-91.49
-86.83
-84.71
-85.56
-89.28
-95.50
-103.69
-113.22
-123.22
-132.46
-139.39
-142.57
-141.03
-134.81
-124.94
-113.09
-100.90
-89.48
-79.24
-70.11
-61.96
-54.94
-49.53
-46.28
-45.38
-46.52
-48.79
-50.94
-51.78
-50.52
-47.11
-42.23
-37.10
-33.04
-31.03
-31.31
-33.42
-36.49
-39.63
-42.37
-44.72
-47.09
-50.01
-53.87
-58.68
-64.05
-69.13
-72.80
-73.88
-71.39
-64.94
-54.89
-42.31
-28.70
-15.61
-4.22
4.79
11.26
15.35
17.38
17.68
16.59
14.47
11.79
9.10
6.91
5.58
5.14
5.33
5.65
5.64
4.97
3.64
1.90
0.14
-1.36
-2.58
-3.72
-5.17
-7.33
-10.52
-14.83
-20.07
-25.61
-30.38
-32.97
-32.05
-26.71
-16.85
-3.36
12.23
28.18
42.99
55.67
65.74
73.06
77.68
79.78
79.73
78.02
75.24
71.91
68.35
64.78
61.30
57.97
54.83
51.84
48.85
45.68
42.18
38.34
34.30
30.28
26.40
22.65
18.85
14.83
10.53
6.02
1.46
-2.96
-7.07
-10.65
-13.39
-14.85
-14.53
-12.03
-7.11
0.22
9.68
20.78
32.78
44.81
55.85
64.87
71.00
73.58
72.35
67.48
59.59
49.64
38.87
28.53
19.66
12.91
8.41
5.86
4.64
3.94
2.94
0.98
-2.38
-7.15
-12.98
-19.23
-25.26
-30.73
-35.73
-40.76
-46.52
-53.61
-62.22
-71.97
-81.89
-90.49
-96.04
-96.91
-92.05
-81.39
-65.97
-47.74
-29.08
-12.20
1.42
11.21
17.45
20.96
22.70
23.57
24.19
24.97
26.17
27.93
30.28
33.15
36.31
39.49
42.40
44.83
46.62
47.69
47.92
47.19
45.35
42.39
38.44
33.88
29.15
24.68
20.58
16.61
12.27
7.12
1.12
-5.12
-10.45
-13.50
-13.17
-9.05
-1.60
8.05
18.43
28.11
35.99
41.41
44.20
44.59
43.10
40.36
36.93
33.20
29.40
25.71
22.38
19.73
18.08
17.47
17.63
17.96
17.82
16.74
14.70
12.05
9.29
6.77
4.53
2.31
-0.32
-3.67
-7.86
-12.74
-17.98
-23.15
-27.66
-30.83
-31.85
-30.04
-25.04
-17.05
-6.89
4.16
14.75
23.85
30.90
35.85
38.90
40.29
40.19
38.78
36.34
33.38
30.53
28.27
26.80
25.87
24.93
23.41
20.94
17.50
13.33
8.76
4.09
-0.52
-4.90
-8.92
-12.46
-15.54
-18.42
-21.54
-25.34
-29.98
-35.10
-39.75
-42.66
-42.60
-38.84
-31.40
-20.99
-8.82
3.80
15.67
25.93
34.03
39.70
42.93
43.86
42.85
40.37
36.94
33.11
29.34
25.99
23.24
21.08
19.31
17.57
15.48
12.76
9.36
5.43
1.26
-2.84
-6.73
-10.37
-13.88
-17.35
-20.94
-24.78
-29.06
-33.98
-39.59
-45.55
-51.06
-54.92
-55.82
-52.87
-45.86
-35.40
-22.76
-9.47
3.07
13.85
22.33
28.44
32.35
34.43
35.11
34.86
34.12
33.28
32.63
32.31
32.38
32.73
33.21
33.68
33.97
34.06
33.91
33.51
32.86
31.92
30.62
28.89
26.70
23.99
20.78
17.07
12.88
8.22
3.06
-2.53
-8.29
-13.66
-17.82
-19.78
-18.77
-14.54
-7.56
1.13
10.19
18.46
25.23
30.24
33.60
35.51
36.11
35.52
33.92
31.59
28.94
26.38
24.16
22.38
20.98
19.76
18.52
17.11
15.40
13.33
10.99
8.52
6.12
3.95
2.03
0.26
-1.56
-3.69
-6.32
-9.55
-13.43
-17.81
-22.41
-26.69
-29.87
-31.12
-29.77
-25.65
-19.14
-11.22
-3.06
4.23
9.91
13.72
15.76
16.27
15.46
13.51
10.64
7.20
3.66
0.53
-1.87
-3.53
-4.71
-5.79
-7.07
-8.66
-10.44
-12.21
-13.82
-15.22
-16.50
-17.75
-18.98
-20.10
-20.97
-21.46
-21.58
-21.47
-21.39
-21.64
-22.45
-23.79
-25.38
-26.55
-26.49
-24.33
-19.47
-11.80
-1.80
9.56
21.12
31.77
40.74
47.71
52.73
56.09
58.29
59.88
61.40
63.29
65.77
68.78
72.02
75.18
78.13
81.07
84.47
88.79
94.27
100.72
107.58
114.14
119.83
124.40
127.88
130.66
133.27
136.24
139.80
143.64
146.71
147.38
143.82
134.61
119.21
98.06
72.41
43.88
14.16
-15.16
-42.67
-67.22
-88.12
-105.30
-119.33
-131.11
-141.44
-150.66
-158.50
-164.32
-167.48
-167.54
-164.32
-157.91
-148.56
-136.75
-123.41
-109.82
-97.42
-87.39
-80.29
-75.97
-73.68
-72.42
-71.25
-69.56
-67.05
-63.75
-59.93
-56.00
-52.39
-49.52
-47.65
-46.83
-46.90
-47.41
-47.73
-47.11
-44.87
-40.60
-34.45
-27.00
-19.27
-12.29
-6.86
-3.36
-1.76
-1.80
-3.08
-5.23
-7.91
-10.79
-13.61
-16.11
-18.11
-19.51
-20.34
-20.70
-20.82
-20.97
-21.44
-22.46
-24.16
-26.50
-29.30
-32.34
-35.39
-38.46
-41.67
-45.22
-49.20
-53.34
-56.98
-59.21
-59.09
-55.99
-49.72
-40.48
-28.72
-15.00
0.16
16.15
32.28
47.72
61.64
73.36
82.49
89.02
93.36
96.13
98.11
100.04
102.43
105.48
109.09
112.95
116.78
120.40
123.77
126.81
129.18
130.27
129.26
125.51
118.78
109.37
98.00
85.47
72.51
59.75
47.85
37.65
30.14
26.12
25.74
28.34
32.42
36.16
37.96
36.97
33.23
27.52
20.97
14.65
9.30
5.20
2.27
0.21
-1.39
-2.87
-4.48
-6.43
-8.81
-11.65
-14.84
-18.06
-20.89
-22.86
-23.68
-23.44
-22.66
-22.20
-22.92
-25.42
-29.80
-35.62
-42.04
-48.05
-52.71
-55.22
-55.09
-52.16
-46.70
-39.37
-31.18
-23.26
-16.60
-11.78
-8.87
-7.51
-7.10
-7.08
-7.05
-6.97
-7.00
-7.46
-8.61
-10.52
-13.03
-15.77
-18.34
-20.47
-22.09
-23.32
-24.35
-25.33
-26.27
-27.13
-27.87
-28.62
-29.58
-30.90
-32.42
-33.76
-34.42
-34.19
-33.31
-32.40
-32.08
-32.44
-32.81
-31.94
-28.55
-22.03
-12.77
-2.11
8.31
17.13
23.68
28.00
30.55
31.91
32.71
33.85
36.65
42.89
54.30
71.74
94.51
120.14
145.07
165.80
180.18
187.90
190.24
189.01
185.44
179.63
170.72
157.66
139.93
117.96
92.84
65.91
38.26
10.73
-15.89
-40.59
-62.04
-78.93
-90.47
-96.83
-99.22
-99.54
-99.69
-100.92
-103.41
-106.43
-108.81
-109.46
-107.85
-104.11
-98.93
-93.18
-87.62
-82.69
-78.41
-74.54
-70.76
-66.88
-63.01
-59.55
-56.96
-55.66
-55.80
-57.21
-59.56
-62.42
-65.46
-68.41
-71.08
-73.37
-75.32
-77.09
-78.91
-80.94
-83.08
-84.87
-85.53
-84.19
-80.16
-73.29
-64.08
-53.58
-43.16
-34.15
-27.53
-23.79
-22.84
-24.12
-26.74
-29.69
-32.03
-33.06
-32.47
-30.26
-26.70
-22.20
-17.23
-12.32
-8.01
-4.79
-3.07
-2.96
-4.31
-6.64
-9.32
-11.76
-13.63
-14.89
-15.79
-16.71
-18.04
-19.99
-22.54
-25.34
-27.72
-28.85
-27.85
-24.13
-17.57
-8.58
1.93
12.92
23.38
32.65
40.39
46.36
50.23
51.47
49.42
43.59
33.96
21.24
6.81
-7.55
-20.21
-30.09
-36.99
-41.47
-44.60
-47.44
-50.70
-54.57
-58.79
-62.91
-66.52
-69.41
-71.52
-72.88
-73.60
-73.89
-74.07
-74.68
-76.36
-79.75
-85.32
-93.22
-103.15
-114.25
-125.16
-134.11
-139.34
-139.57
-134.53
-125.13
-113.33
-101.54
-91.85
-85.50
-82.73
-82.98
-85.33
-88.79
-92.44
-95.53
-97.51
-98.07
-97.25
-95.33
-92.67
-89.46
-85.71
-81.32
-76.31
-70.99
-65.89
-61.55
-58.18
-55.54
-53.02
-49.99
-46.18
-41.92
-38.09
-35.88
-36.44
-40.50
-48.01
-58.17
-69.46
-79.89
-87.26
-89.52
-85.06
-73.12
-54.02
-29.24
-1.12
27.66
54.66
78.19
97.34
111.83
121.58
126.48
126.33
121.07
111.20
97.96
83.32
69.59
58.96
53.02
52.41
56.64
64.11
72.30
78.21
79.07
73.05
59.89
41.09
19.38
-2.02
-20.41
-34.17
-42.97
-47.41
-48.67
-48.04
-46.61
-45.07
-43.55
-41.56
-38.11
-32.13
-22.87
-10.27
4.91
21.38
37.65
52.43
64.85
74.38
80.88
84.39
85.25
84.03
81.52
78.55
75.82
73.66
71.98
70.41
68.42
65.64
61.97
57.65
53.10
48.75
44.92
41.64
38.74
35.84
32.53
28.39
23.03
16.16
7.54
-2.77
-14.25
-25.73
-35.42
-41.23
-41.44
-35.22
-23.08
-6.78
11.30
28.84
44.24
56.75
66.37
73.47
78.50
81.88
84.00
85.26
85.91
85.96
85.06
82.69
78.40
72.18
64.63
56.81
49.96
44.99
42.21
41.27
41.31
41.37
40.68
38.85
35.89
31.98
27.31
21.85
15.36
7.55
-1.76
-12.30
-23.26
-33.30
-40.82
-44.34
-42.89
-36.32
-25.31
-11.18
4.42
19.84
33.73
45.17
53.69
59.26
62.21
63.12
62.72
61.71
60.57
59.52
58.47
57.09
54.97
51.81
47.56
42.57
37.49
33.09
30.06
28.69
28.73
29.51
30.11
29.77
28.13
25.34
21.84
18.14
14.40
10.42
5.79
0.27
-5.80
-11.30
-14.61
-14.12
-8.91
0.88
14.08
28.83
43.16
55.44
64.61
70.14
71.94
70.30
65.82
59.42
52.18
45.08
38.83
33.65
29.40
25.70
22.27
19.05
16.27
14.30
13.37
13.39
13.80
13.65
11.93
7.94
1.53
-6.82
-16.16
-25.45
-33.81
-40.67
-45.77
-49.12
-50.92
-51.56
-51.56
-51.35
-51.07
-50.41
-48.59
-44.68
-37.99
-28.43
-16.55
-3.39
9.93
22.50
33.68
43.17
50.72
56.09
59.09
59.77
58.64
56.65
55.07
55.04
57.11
61.00
65.67
69.78
72.22
72.52
70.84
67.61
63.09
57.14
49.41
39.74
28.67
17.37
7.25
-0.74
-6.63
-11.33
-16.21
-22.39
-30.26
-39.42
-49.02
-58.12
-65.84
-71.40
-73.98
-72.77
-67.31
-57.81
-45.32
-31.55
-18.33
-7.11
1.45
7.46
11.56
14.56
17.17
19.84
22.78
26.02
29.54
33.30
37.19
40.99
44.25
46.38
46.81
45.35
42.31
38.49
34.83
31.94
29.84
28.05
25.90
23.06
19.65
16.15
12.99
10.23
7.41
3.80
-1.23
-7.79
-15.29
-22.48
-27.85
-30.13
-28.73
-23.97
-16.89
-8.93
-1.30
5.25
10.59
14.97
18.76
22.23
25.54
28.80
32.11
35.43
38.50
40.82
41.74
40.74
37.65
32.71
26.48
19.60
12.62
5.81
-0.80
-7.26
-13.58
-19.57
-24.87
-29.11
-32.05
-33.73
-34.54
-35.05
-35.90
-37.62
-40.45
-44.28
-48.55
-52.25
-54.09
-52.83
-47.66
-38.52
-26.12
-11.74
3.16
17.37
30.01
40.58
48.77
54.46
57.74
58.93
58.59
57.31
55.65
53.97
52.54
51.52
51.08
51.30
52.16
53.57
55.45
57.82
60.68
64.02
67.61
71.07
73.97
75.99
77.02
77.11
76.33
74.64
71.85
67.65
61.67
53.65
43.47
31.30
17.66
3.41
-10.27
-22.16
-31.17
-36.70
-38.75
-38.02
-35.80
-33.73
-33.45
-36.18
-42.40
-51.66
-62.72
-73.85
-83.28
-89.63
-92.32
-91.68
-88.76
-84.95
-81.37
-78.49
-76.04
-73.27
-69.50
-64.47
-58.51
-52.25
-46.27
-40.80
-35.71
-30.72
-25.67
-20.64
-15.88
-11.66
-8.10
-5.17
-2.66
-0.29
2.23
5.21
8.85
13.28
18.48
24.33
30.62
37.09
43.46
49.38
54.44
58.20
60.25
60.38
58.65
55.47
51.46
47.26
43.36
39.97
37.12
34.81
33.11
32.23
32.20
32.75
33.17
32.45
29.66
24.30
16.52
6.94
-3.54
-14.14
-24.39
-34.14
-43.49
-52.61
-61.66
-70.61
-79.27
-87.21
-93.82
-98.47
-100.70
-100.42
-97.94
-93.94
-89.21
-84.49
-80.24
-76.68
-73.75
-71.32
-69.24
-67.37
-65.61
-63.78
-61.66
-58.99
-55.57
-51.38
-46.54
-41.31
-35.97
-30.77
-25.85
-21.28
-17.05
-13.06
-9.11
-4.95
-0.37
4.67
9.92
14.84
18.73
21.00
21.47
20.41
18.61
17.10
16.87
18.60
22.52
28.34
35.51
43.33
51.19
58.60
65.19
70.60
74.46
76.35
75.93
72.96
67.46
59.72
50.31
40.01
29.67
20.03
11.59
4.56
-1.11
-5.64
-9.21
-11.97
-13.98
-15.34
-16.16
-16.63
-16.86
-16.85
-16.50
-15.72
-14.61
-13.48
-12.87
-13.13
-14.32
-15.93
-17.03
-16.57
-13.79
-8.51
-1.24
7.04
15.16
22.06
27.01
29.62
29.77
27.58
23.29
17.29
10.12
2.42
-5.07
-11.63
-16.77
-20.30
-22.38
-23.47
-24.11
-24.70
-25.41
-26.17
-26.84
-27.40
-27.97
-28.78
-29.99
-31.57
-33.35
-35.15
-36.93
-38.80
-40.87
-43.05
-44.91
-45.74
-44.87
-41.95
-37.11
-30.92
-24.13
-17.50
-11.55
-6.61
-2.83
-0.21
1.34
2.08
2.29
2.29
2.25
2.20
2.08
1.84
1.47
1.05
0.67
0.35
0.04
-0.36
-0.93
-1.71
-2.70
-3.90
-5.28
-6.80
-8.42
-10.09
-11.76
-13.49
-15.47
-17.92
-21.01
-24.69
-28.54
-31.88
-33.88
-33.89
-31.60
-27.16
-21.13
-14.25
-7.23
-0.62
5.19
10.01
13.73
16.32
17.83
18.40
18.20
17.42
16.25
14.86
13.42
12.13
11.14
10.52
10.17
9.90
9.48
8.78
7.73
6.41
4.91
3.32
1.63
-0.29
-2.62
-5.51
-9.04
-13.16
-17.57
-21.75
-25.07
-26.86
-26.66
-24.32
-20.08
-14.50
-8.31
-2.17
3.42
8.21
12.15
15.31
17.69
19.27
20.01
19.91
19.10
17.83
16.41
15.15
14.24
13.69
13.33
12.93
12.29
11.30
10.03
8.58
7.05
5.44
3.70
1.77
-0.38
-2.72
-5.24
-8.00
-11.16
-14.88
-19.14
-23.67
-27.86
-30.90
-32.02
-30.74
-26.98
-21.17
-14.06
-6.51
0.67
6.94
12.06
16.02
18.95
21.00
22.27
22.79
22.64
21.88
20.66
19.13
17.44
15.69
13.99
12.45
11.19
10.29
9.72
9.27
8.67
7.61
5.96
3.83
1.46
-0.85
-2.92
-4.75
-6.58
-8.69
-11.33
-14.61
-18.40
-22.34
-25.83
-28.15
-28.60
-26.74
-22.48
-16.18
-8.58
-0.61
6.82
13.02
17.65
20.70
22.42
23.20
23.45
23.49
23.54
23.62
23.64
23.45
22.93
22.07
20.96
19.76
18.63
17.66
16.89
16.28
15.73
15.12
14.26
12.97
11.09
8.63
5.77
2.87
0.26
-1.89
-3.67
-5.42
-7.53
-10.29
-13.75
-17.62
-21.36
-24.28
-25.72
-25.18
-22.48
-17.76
-11.48
-4.31
3.01
9.86
15.79
20.53
24.09
26.53
28.05
28.81
28.93
28.51
27.63
26.40
24.98
23.57
22.35
21.41
20.79
20.43
20.25
20.18
20.12
19.97
19.54
18.59
16.94
14.54
11.56
8.36
5.35
2.81
0.81
-0.79
-2.32
-4.10
-6.34
-9.08
-12.11
-15.05
-17.33
-18.36
-17.67
-15.07
-10.71
-5.04
1.34
7.80
13.82
19.00
23.04
25.77
27.08
27.09
26.07
24.46
22.75
21.32
20.39
20.00
20.02
20.23
20.42
20.39
19.99
19.15
17.85
16.11
13.96
11.43
8.53
5.30
1.84
-1.68
-5.05
-8.11
-10.77
-13.11
-15.34
-17.73
-20.51
-23.73
-27.21
-30.55
-33.14
-34.36
-33.75
-31.15
-26.75
-21.04
-14.73
-8.48
-2.84
1.88
5.57
8.30
10.22
11.50
12.34
12.89
13.25
13.46
13.49
13.28
12.75
11.88
10.67
9.21
7.62
6.02
4.50
3.08
1.69
0.26
-1.29
-3.01
-4.84
-6.73
-8.58
-10.32
-11.94
-13.45
-14.97
-16.65
-18.66
-21.10
-23.88
-26.63
-28.73
-29.44
-28.19
-24.83
-19.71
-13.56
-7.21
-1.35
3.64
7.67
10.78
12.97
14.27
14.69
14.44
13.82
13.19
12.80
12.69
12.68
12.52
11.98
10.99
9.65
8.14
6.67
5.38
4.29
3.31
2.32
1.20
-0.15
-1.74
-3.48
-5.26
-6.95
-8.48
-9.85
-11.16
-12.61
-14.37
-16.53
-18.93
-21.15
-22.59
-22.70
-21.15
-18.03
-13.76
-8.97
-4.25
-0.03
3.46
6.13
7.97
8.97
9.19
8.79
8.03
7.22
6.57
6.19
6.02
5.90
5.72
5.41
4.98
4.48
3.92
3.32
2.62
1.79
0.79
-0.40
-1.79
-3.38
-5.08
-6.77
-8.30
-9.61
-10.76
-11.93
-13.31
-15.06
-17.15
-19.31
-21.13
-22.09
-21.77
-19.94
-16.64
-12.15
-6.98
-1.73
3.04
6.93
9.76
11.59
12.63
13.16
13.38
13.44
13.37
13.19
12.94
12.68
12.53
12.55
12.75
13.03
13.29
13.41
13.34
13.07
12.59
11.88
10.92
9.67
8.18
6.53
4.84
3.17
1.57
0.00
-1.58
-3.23
-4.90
-6.43
-7.56
-7.97
-7.38
-5.64
-2.87
0.60
4.28
7.65
10.34
12.19
13.23
13.59
13.37
12.65
11.45
9.87
8.09
6.35
4.89
3.88
3.34
3.15
3.09
2.92
2.44
1.57
0.35
-1.06
-2.46
-3.69
-4.73
-5.66
-6.69
-8.00
-9.71
-11.80
-14.13
-16.39
-18.27
-19.40
-19.50
-18.45
-16.25
-13.09
-9.30
-5.29
-1.49
1.72
4.07
5.42
5.80
5.35
4.31
2.93
1.49
0.23
-0.68
-1.16
-1.24
-1.09
-0.93
-0.98
-1.40
-2.19
-3.33
-4.71
-6.23
-7.77
-9.24
-10.56
-11.74
-12.91
-14.22
-15.83
-17.72
-19.70
-21.35
-22.20
-21.89
-20.24
-17.37
-13.60
-9.36
-5.11
-1.23
1.99
4.41
6.00
6.84
7.07
6.86
6.37
5.73
5.05
4.44
3.97
3.67
3.45
3.19
2.72
1.94
0.88
-0.35
-1.56
-2.64
-3.58
-4.46
-5.39
-6.42
-7.59
-8.88
-10.29
-11.86
-13.60
-15.33
-16.71
-17.22
-16.39
-13.98
-10.16
-5.38
-0.30
4.51
8.70
12.15
14.86
16.88
18.23
18.93
19.12
19.03
18.97
19.26
20.12
21.67
23.97
26.95
30.51
34.43
38.42
42.25
45.87
49.43
53.22
57.43
61.97
66.43
70.12
72.42
72.94
71.61
68.55
63.95
57.98
50.86
43.05
35.29
28.47
23.36
20.36
19.38
19.94
21.42
23.21
24.79
25.69
25.56
24.23
21.83
18.72
15.33
11.90
8.41
4.63
0.46
-3.76
-7.37
-9.61
-9.99
-8.56
-5.77
-2.22
1.57
5.18
8.18
10.00
10.11
8.24
4.70
0.33
-3.87
-7.18
-9.55
-11.52
-13.86
-17.11
-21.33
-26.13
-30.96
-35.34
-38.99
-41.83
-43.83
-44.95
-45.13
-44.31
-42.53
-39.91
-36.69
-33.16
-29.60
-26.25
-23.20
-20.50
-18.13
-16.16
-14.77
-14.27
-15.04
-17.45
-21.78
-28.18
-36.59
-46.61
-57.63
-68.84
-79.45
-88.78
-96.38
-102.05
-105.71
-107.47
-107.53
-106.20
-103.79
-100.52
-96.40
-91.13
-84.29
-75.53
-64.83
-52.64
-39.77
-27.16
-15.60
-5.53
2.96
10.01
15.83
20.54
24.16
26.65
28.03
28.51
28.42
28.10
27.84
27.74
27.74
27.73
27.62
27.43
27.23
27.06
26.94
26.86
26.92
27.31
28.31
30.09
32.61
35.57
38.49
40.85
42.30
42.85
42.88
43.21
44.82
48.55
54.79
63.18
72.66
81.71
88.86
92.99
93.64
90.85
85.00
76.59
66.21
54.53
42.39
30.66
20.18
11.43
4.51
-0.91
-5.37
-9.37
-13.20
-16.91
-20.43
-23.73
-27.03
-30.76
-35.46
-41.48
-48.83
-57.12
-65.70
-73.93
-81.36
-87.85
-93.55
-98.62
-103.16
-107.06
-109.97
-111.39
-110.85
-108.03
-102.90
-95.75
-87.06
-77.41
-67.35
-57.34
-47.75
-38.95
-31.24
-24.89
-20.00
-16.47
-14.03
-12.32
-10.94
-9.56
-7.99
-6.16
-4.16
-2.18
-0.41
1.04
2.17
3.20
4.33
5.67
7.08
8.20
8.60
8.01
6.38
3.99
1.28
-1.34
-3.62
-5.51
-7.17
-8.82
-10.69
-12.83
-15.07
-17.01
-18.09
-17.74
-15.57
-11.58
-6.16
-0.01
6.07
11.43
15.68
18.74
20.78
22.06
22.76
22.98
22.74
22.07
21.10
20.05
19.16
18.57
18.21
17.85
17.28
16.41
15.35
14.31
13.43
12.66
11.76
10.45
8.60
6.27
3.64
0.90
-1.90
-4.80
-7.88
-11.08
-14.16
-16.72
-18.24
-18.29
-16.59
-13.16
-8.29
-2.51
3.50
9.10
13.84
17.48
19.98
21.48
22.15
22.19
21.84
21.24
20.55
19.78
18.93
17.91
16.72
15.37
13.92
12.45
10.99
9.59
8.24
6.92
5.60
4.23
2.77
1.19
-0.55
-2.47
-4.58
-6.94
-9.59
-12.54
-15.68
-18.77
-21.41
-23.11
-23.45
-22.12
-19.09
-14.60
-9.12
-3.25
2.46
7.58
11.90
15.35
17.98
19.85
21.07
21.72
21.90
21.71
21.22
20.45
19.41
18.19
16.91
15.74
14.81
14.14
13.61
13.00
12.05
10.59
8.54
6.01
3.21
0.45
-2.03
-4.04
-5.59
-6.82
-7.97
-9.34
-11.14
-13.48
-16.25
-19.10
-21.42
-22.52
-21.84
-19.10
-14.54
-8.80
-2.72
2.91
7.68
11.50
14.50
16.81
18.44
19.29
19.31
18.65
17.61
16.60
15.88
15.53
15.34
15.07
14.53
13.68
12.66
11.65
10.79
10.10
9.47
8.79
7.94
6.86
5.50
3.84
1.88
-0.33
-2.65
-4.91
-6.93
-8.66
-10.20
-11.80
-13.71
-16.03
-18.54
-20.75
-21.99
-21.70
-19.60
-15.84
-10.90
-5.42
-0.06
4.77
8.86
12.16
14.73
16.60
17.78
18.24
18.00
17.18
15.97
14.64
13.43
12.53
11.95
11.60
11.31
10.92
10.35
9.62
8.86
8.14
7.49
6.81
5.92
4.68
3.05
1.15
-0.79
-2.54
-3.98
-5.13
-6.16
-7.29
-8.69
-10.36
-12.16
-13.84
-15.04
-15.46
-14.88
-13.20
-10.52
-7.10
-3.31
0.46
3.85
6.64
8.73
10.11
10.83
10.96
10.56
9.71
8.51
7.13
5.76
4.61
3.88
3.71
4.15
5.13
6.45
7.86
9.04
9.71
9.68
8.84
7.24
5.05
2.59
0.23
-1.69
-3.01
-3.72
-3.99
-4.07
-4.25
-4.75
-5.67
-6.97
-8.37
-9.38
-9.39
-7.82
-4.37
0.89
7.45
14.53
21.29
27.01
31.27
33.81
34.58
33.63
31.13
27.42
22.99
18.42
14.26
10.81
8.19
6.29
4.97
4.11
3.64
3.52
3.60
3.67
3.46
2.78
1.58
-0.09
-2.04
-4.14
-6.27
-8.31
-10.11
-11.44
-12.00
-11.56
-10.02
-7.47
-4.20
-0.54
3.33
7.42
12.02
17.44
23.87
31.09
38.52
45.31
50.70
54.18
55.72
55.68
54.65
53.28
52.13
51.45
51.24
51.28
51.14
50.37
48.58
45.57
41.36
36.23
30.61
24.98
19.81
15.45
12.10
9.81
8.40
7.47
6.46
4.72
1.71
-2.80
-8.64
-15.31
-22.11
-28.42
-33.82
-38.11
-41.11
-42.63
-42.42
-40.24
-36.08
-30.17
-23.03
-15.35
-7.82
-1.08
4.47
8.76
12.06
15.00
18.37
22.88
28.93
36.38
44.69
53.07
60.75
67.18
72.07
75.36
77.13
77.55
76.86
75.30
73.10
70.39
67.17
63.33
58.84
53.92
49.17
45.48
43.71
44.44
47.73
53.11
59.72
66.51
72.39
76.37
77.60
75.52
70.01
61.42
50.48
38.07
24.93
11.51
-2.07
-15.71
-29.21
-42.09
-53.70
-63.48
-71.07
-76.45
-79.89
-81.82
-82.73
-83.13
-83.51
-84.29
-85.80
-88.09
-90.90
-93.60
-95.45
-95.78
-94.36
-91.44
-87.66
-83.74
-80.22
-77.20
-74.35
-70.96
-66.07
-58.66
-47.87
-33.22
-14.86
6.42
29.34
52.52
74.86
95.74
115.00
132.70
149.00
164.06
178.07
191.26
203.81
215.74
226.84
236.78
245.17
251.74
256.20
258.21
257.31
253.07
245.28
234.16
220.28
204.40
187.17
169.02
150.28
131.36
112.91
95.74
80.60
67.88
57.50
48.87
41.13
33.32
24.66
14.69
3.31
-9.27
-22.70
-36.62
-50.79
-65.07
-79.42
-93.74
-107.86
-121.54
-134.44
-146.15
-156.23
-164.19
-169.60
-172.10
-171.69
-168.74
-164.06
-158.73
-153.87
-150.37
-148.66
-148.68
-150.05
-152.23
-154.83
-157.70
-160.95
-164.78
-169.29
-174.27
-179.09
-182.86
-184.61
-183.74
-180.19
-174.56
-167.81
-160.92
-154.58
-149.00
-144.12
-139.81
-136.17
-133.44
-131.91
-131.74
-132.82
-134.83
-137.28
-139.67
-141.42
-141.98
-140.79
-137.48
-131.92
-124.30
-115.03
-104.55
-93.24
-81.30
-68.86
-56.07
-43.21
-30.69
-19.01
-8.74
-0.33
5.87
9.77
11.54
11.63
10.65
9.27
8.07
7.39
7.33
7.75
8.31
8.53
7.86
5.78
1.86
-4.00
-11.45
-19.57
-27.03
-32.38
-34.53
-33.07
-28.45
-21.82
-14.58
-7.93
-2.55
1.43
4.22
6.15
7.43
8.14
8.26
7.78
6.68
4.91
2.42
-0.83
-4.73
-8.96
-13.08
-16.53
-18.86
-19.74
-19.06
-16.83
-13.11
-7.97
-1.46
6.28
14.95
23.96
32.52
39.74
44.82
47.29
47.05
44.35
39.69
33.66
26.85
19.86
13.26
7.48
2.79
-0.81
-3.58
-5.91
-8.13
-10.48
-13.02
-15.74
-18.65
-21.83
-25.39
-29.37
-33.62
-37.72
-41.08
-42.98
-42.79
-40.16
-35.11
-28.09
-19.81
-11.11
-2.68
5.02
11.73
17.31
21.67
24.70
26.40
26.95
26.77
26.38
26.27
26.73
27.72
28.98
30.12
30.82
30.94
30.53
29.70
28.56
27.11
25.26
22.88
19.85
16.14
11.74
6.62
0.75
-5.85
-12.98
-20.14
-26.49
-31.05
-32.86
-31.30
-26.31
-18.41
-8.54
2.12
12.45
21.57
28.96
34.43
38.03
40.00
40.60
40.22
39.29
38.25
37.48
37.18
37.35
37.79
38.23
38.38
38.01
36.99
35.27
32.84
29.77
26.17
22.17
17.83
13.17
8.09
2.51
-3.60
-10.11
-16.76
-23.19
-29.00
-33.77
-37.01
-38.29
-37.19
-33.57
-27.67
-20.12
-11.90
-4.03
2.65
7.68
10.99
12.70
12.97
11.89
9.53
6.01
1.74
-2.65
-6.39
-8.91
-10.01
-9.97
-9.49
-9.30
-9.93
-11.58
-14.03
-16.94
-19.97
-22.94
-25.82
-28.65
-31.41
-34.08
-36.62
-39.01
-41.20
-43.06
-44.24
-44.24
-42.53
-38.74
-32.91
-25.58
-17.66
-10.22
-4.19
-0.15
1.68
1.44
-0.55
-3.94
-8.39
-13.59
-19.23
-24.99
-30.53
-35.56
-39.93
-43.60
-46.58
-48.81
-50.10
-50.12
-48.55
-45.26
-40.53
-34.99
-29.55
-25.13
-22.44
-21.74
-22.87
-25.32
-28.29
-30.89
-32.19
-31.40
-27.98
-21.84
-13.39
-3.50
6.70
16.10
23.90
29.76
33.69
35.89
36.55
35.81
33.81
30.78
27.16
23.57
20.68
18.98
18.65
19.43
20.75
21.96
22.53
22.24
21.27
20.01
18.88
18.12
17.67
17.15
16.09
14.04
10.82
6.61
1.91
-2.48
-5.62
-6.68
-5.18
-1.09
5.03
12.29
19.71
26.49
32.16
36.57
39.70
41.58
42.18
41.52
39.78
37.32
34.67
32.35
30.64
29.56
28.84
28.13
27.08
25.54
23.54
21.21
18.71
16.18
13.66
11.16
8.74
6.45
4.32
2.27
0.04
-2.73
-6.32
-10.74
-15.47
-19.51
-21.61
-20.69
-16.20
-8.39
1.82
13.13
24.20
34.03
41.99
47.91
51.85
54.04
54.73
54.23
52.82
50.85
48.66
46.59
44.89
43.69
42.97
42.48
41.87
40.79
39.01
36.52
33.49
30.19
26.79
23.40
19.95
16.42
12.76
9.06
5.32
1.50
-2.51
-6.81
-11.21
-15.21
-17.96
-18.54
-16.27
-11.07
-3.43
5.62
14.93
23.48
30.60
35.99
39.65
41.71
42.34
41.78
40.29
38.23
36.07
34.23
32.99
32.43
32.43
32.70
32.93
32.94
32.56
31.75
30.46
28.70
26.44
23.72
20.58
17.09
13.30
9.18
4.70
-0.24
-5.72
-11.73
-18.07
-24.31
-29.73
-33.42
-34.49
-32.38
-27.07
-19.21
-9.90
-0.40
8.22
15.35
20.77
24.59
26.99
28.12
28.02
26.76
24.51
21.65
18.67
16.09
14.28
13.36
13.15
13.28
13.38
13.19
12.63
11.81
10.91
10.02
9.12
8.07
6.62
4.54
1.60
-2.31
-7.15
-12.59
-18.04
-22.65
-25.49
-25.84
-23.44
-18.59
-12.11
-5.07
1.52
6.91
10.80
13.23
14.44
14.72
14.25
13.19
11.67
9.84
7.92
6.12
4.61
3.44
2.51
1.65
0.65
-0.64
-2.27
-4.20
-6.30
-8.48
-10.70
-13.13
-16.05
-19.81
-24.66
-30.60
-37.25
-43.87
-49.51
-53.21
-54.30
-52.49
-47.92
-41.12
-32.75
-23.56
-14.31
-5.66
1.78
7.56
11.38
13.25
13.40
12.29
10.58
8.99
8.13
8.45
10.06
12.69
15.87
19.00
21.60
23.42
24.50
25.07
25.37
25.54
25.45
24.86
23.43
20.93
17.33
12.75
7.54
2.22
-2.52
-5.85
-6.92
-5.18
-0.55
6.35
14.39
22.28
28.96
33.94
37.25
39.19
40.04
39.87
38.56
36.04
32.42
28.05
23.43
19.00
15.03
11.55
8.43
5.46
2.36
-1.11
-5.19
-10.07
-15.83
-22.43
-29.67
-37.21
-44.66
-51.66
-57.98
-63.58
-68.66
-73.53
-78.51
-83.76
-89.01
-93.63
-96.61
-97.01
-94.20
-88.18
-79.59
-69.49
-59.02
-49.12
-40.36
-33.04
-27.26
-23.05
-20.37
-18.99
-18.46
-18.14
-17.39
-15.82
-13.43
-10.51
-7.50
-4.67
-2.13
0.23
2.48
4.49
5.99
6.67
6.42
5.39
4.03
2.77
1.91
1.47
1.24
0.90
0.17
-1.09
-2.87
-4.93
-6.86
-8.06
-7.85
-5.66
-1.22
5.29
13.23
21.67
29.68
36.55
41.95
45.88
48.56
50.23
51.02
51.06
50.49
49.61
48.82
48.56
49.13
50.53
52.45
54.36
55.69
55.97
54.98
52.75
49.50
45.56
41.25
36.83
32.43
28.08
23.74
19.36
14.93
10.49
6.16
2.14
-1.29
-3.77
-4.90
-4.36
-2.04
1.87
6.80
12.01
16.79
20.63
23.29
24.79
25.27
24.92
23.95
22.59
21.13
19.84
18.92
18.42
18.23
18.18
18.05
17.64
16.83
15.54
13.74
11.49
8.93
6.18
3.33
0.38
-2.71
-6.03
-9.59
-13.33
-17.14
-20.85
-24.24
-27.05
-28.90
-29.37
-28.18
-25.17
-20.53
-14.72
-8.35
-2.10
3.52
8.14
11.61
13.94
15.24
15.67
15.46
14.82
13.92
12.90
11.83
10.75
9.67
8.65
7.66
6.66
5.57
4.26
2.67
0.79
-1.31
-3.50
-5.65
-7.71
-9.67
-11.60
-13.56
-15.63
-17.85
-20.24
-22.79
-25.39
-27.80
-29.63
-30.41
-29.67
-27.17
-22.98
-17.53
-11.50
-5.64
-0.54
3.47
6.31
8.14
9.17
9.63
9.61
9.18
8.38
7.32
6.13
4.97
3.96
3.17
2.59
2.14
1.79
1.49
1.24
1.00
0.69
0.20
-0.60
-1.80
-3.38
-5.23
-7.20
-9.15
-11.01
-12.84
-14.77
-16.92
-19.25
-21.49
-23.08
-23.44
-22.10
-18.96
-14.35
-8.91
-3.37
1.76
6.16
9.76
12.56
14.54
15.70
16.07
15.85
15.34
14.87
14.68
14.81
15.16
15.57
15.93
16.19
16.42
16.63
16.85
16.97
16.91
16.55
15.89
14.95
13.85
12.75
11.74
10.84
9.98
9.01
7.80
6.25
4.34
2.13
-0.19
-2.32
-3.84
-4.31
-3.40
-1.05
2.45
6.50
10.36
13.43
15.36
16.19
16.19
15.69
14.97
14.19
13.42
12.67
11.96
11.29
10.68
10.12
9.57
9.06
8.58
8.14
7.67
7.09
6.32
5.34
4.20
2.93
1.57
0.11
-1.51
-3.31
-5.32
-7.51
-9.84
-12.24
-14.59
-16.64
-18.06
-18.48
-17.65
-15.53
-12.35
-8.54
-4.65
-1.17
1.50
3.20
3.93
3.87
3.28
2.42
1.51
0.64
-0.14
-0.79
-1.29
-1.63
-1.87
-2.20
-2.94
-4.38
-6.68
-9.78
-13.38
-17.14
-20.75
-24.03
-26.87
-29.20
-30.94
-32.08
-32.70
-33.00
-33.19
-33.34
-33.24
-32.45
-30.47
-27.01
-22.12
-16.23
-9.90
-3.62
2.39
8.09
13.52
18.57
23.02
26.53
28.81
29.76
29.48
28.25
26.48
24.62
23.16
22.54
23.00
24.51
26.78
29.28
31.47
32.94
33.52
33.24
32.27
30.79
28.98
27.00
24.87
22.52
19.65
15.87
10.79
4.22
-3.71
-12.44
-21.16
-29.01
-35.24
-39.48
-41.68
-42.05
-40.93
-38.63
-35.34
-31.16
-26.13
-20.36
-14.07
-7.68
-1.76
3.10
6.43
8.04
8.11
7.13
5.68
4.31
3.33
2.77
2.46
2.16
1.62
0.69
-0.61
-2.18
-3.82
-5.31
-6.45
-7.16
-7.48
-7.64
-7.91
-8.55
-9.62
-10.97
-12.18
-12.70
-12.03
-9.82
-6.02
-0.90
5.09
11.38
17.48
23.00
27.69
31.39
34.03
35.56
35.91
35.12
33.27
30.60
27.48
24.40
21.81
20.03
19.11
18.75
18.36
17.19
14.67
10.58
5.26
-0.52
-5.83
-9.90
-12.36
-13.27
-12.95
-11.73
-9.76
-6.93
-2.99
2.29
9.02
17.09
26.11
35.40
44.06
51.02
55.37
56.58
54.72
50.47
44.87
39.00
33.68
29.33
25.97
23.47
21.62
20.23
19.08
17.84
16.12
13.48
9.65
4.54
-1.63
-8.49
-15.63
-22.72
-29.60
-36.16
-42.29
-47.79
-52.37
-55.83
-58.19
-59.74
-61.01
-62.54
-64.53
-66.72
-68.35
-68.39
-65.95
-60.65
-52.75
-43.09
-32.80
-22.97
-14.36
-7.30
-1.75
2.60
6.11
9.16
12.04
14.88
17.65
20.10
21.89
22.64
22.16
20.56
18.28
16.00
14.41
13.96
14.67
16.15
17.82
19.18
20.02
20.56
21.24
22.58
24.89
28.19
32.12
35.97
38.73
39.19
36.28
29.32
18.46
4.73
-10.07
-23.82
-34.75
-41.83
-44.96
-44.86
-42.64
-39.48
-36.35
-33.87
-32.38
-31.99
-32.56
-33.80
-35.25
-36.36
-36.59
-35.64
-33.51
-30.52
-27.24
-24.15
-21.52
-19.24
-16.90
-14.09
-10.69
-7.15
-4.42
-3.79
-6.35
-12.56
-22.04
-33.50
-45.14
-55.14
-62.11
-65.38
-64.98
-61.45
-55.57
-48.17
-40.01
-31.75
-23.99
-17.11
-11.36
-6.73
-3.10
-0.22
2.08
3.93
5.35
6.32
6.81
6.89
6.68
6.46
6.54
7.21
8.64
10.77
13.39
16.19
18.85
21.03
22.47
22.93
22.34
20.81
18.70
16.51
14.73
13.63
13.18
13.09
13.04
12.90
12.83
13.23
14.49
16.74
19.76
23.00
25.85
27.82
28.71
28.60
27.72
26.35
24.66
22.75
20.64
18.41
16.23
14.42
13.41
13.53
14.90
17.29
20.17
22.80
24.54
25.00
24.18
22.36
19.96
17.43
15.18
13.70
13.60
15.61
20.43
28.49
39.73
53.63
69.33
85.89
102.58
118.88
134.40
148.52
160.24
168.29
171.51
169.31
162.05
151.12
138.50
126.24
115.74
107.40
100.52
93.66
85.04
73.07
56.76
35.88
11.07
-16.25
-44.14
-70.34
-92.83
-110.22
-122.17
-129.39
-133.51
-136.33
-139.22
-142.65
-146.20
-148.95
-150.14
-149.51
-147.49
-144.82
-142.17
-139.83
-137.75
-135.75
-133.74
-131.91
-130.53
-129.74
-129.37
-128.85
-127.42
-124.44
-119.59
-113.00
-105.24
-97.01
-89.02
-81.72
-75.27
-69.68
-64.85
-60.74
-57.35
-54.76
-53.04
-52.21
-52.25
-53.14
-54.83
-57.20
-59.90
-62.33
-63.60
-62.75
-59.08
-52.39
-43.07
-32.05
-20.45
-9.25
0.83
9.48
16.61
22.27
26.48
29.34
31.00
31.75
32.01
32.19
32.63
33.44
34.54
35.68
36.57
37.02
36.91
36.22
34.99
33.26
31.03
28.29
24.96
20.96
16.23
10.74
4.56
-2.07
-8.76
-15.02
-20.33
-24.16
-26.19
-26.26
-24.45
-21.06
-16.58
-11.61
-6.72
-2.43
0.84
2.78
3.24
2.32
0.33
-2.18
-4.53
-6.17
-6.81
-6.48
-5.49
-4.27
-3.16
-2.37
-1.88
-1.59
-1.42
-1.39
-1.65
-2.46
-4.02
-6.48
-9.78
-13.66
-17.64
-21.14
-23.53
-24.32
-23.20
-20.13
-15.33
-9.27
-2.54
4.23
10.48
15.79
19.92
22.83
24.57
25.26
25.11
24.30
23.08
21.68
20.39
19.38
18.70
18.22
17.71
16.94
15.82
14.41
12.93
11.60
10.56
9.80
9.14
8.27
6.85
4.57
1.30
-2.82
-7.25
-11.18
-13.64
-13.83
-11.33
-6.22
0.95
9.43
18.36
27.01
34.78
41.20
45.92
48.77
49.77
49.20
47.53
45.30
43.02
41.00
39.25
37.52
35.44
32.62
28.86
24.17
18.83
13.19
7.69
2.67
-1.62
-5.02
-7.54
-9.40
-10.94
-12.64
-14.86
-17.64
-20.59
-22.93
-23.70
-22.15
-18.01
-11.66
-4.03
3.70
10.37
15.11
17.57
17.94
16.82
15.06
13.51
12.76
13.03
14.06
15.22
15.72
14.92
12.56
8.82
4.34
-0.11
-3.76
-6.18
-7.28
-7.36
-6.93
-6.62
-7.01
-8.56
-11.44
-15.49
-20.18
-24.61
-27.79
-28.87
-27.42
-23.53
-17.79
-11.11
-4.42
1.50
6.23
9.65
11.87
13.04
13.26
12.58
11.10
9.08
7.00
5.42
4.83
5.38
6.85
8.65
10.15
10.89
10.74
9.89
8.65
7.29
5.88
4.38
2.69
0.68
-1.74
-4.66
-8.12
-11.94
-15.66
-18.47
-19.39
-17.55
-12.63
-4.99
4.31
13.84
22.28
28.75
33.00
35.30
36.16
36.04
35.21
33.76
31.70
29.12
26.22
23.24
20.38
17.78
15.50
13.63
12.25
11.36
10.86
10.50
9.97
8.99
7.47
5.47
3.15
0.67
-1.97
-4.78
-7.78
-10.74
-13.16
-14.29
-13.38
-10.00
-4.25
3.14
11.04
18.26
23.93
27.74
29.84
30.60
30.38
29.41
27.79
25.67
23.33
21.13
19.37
18.12
17.24
16.40
15.34
13.94
12.31
10.68
9.26
8.04
6.87
5.44
3.53
1.04
-1.92
-5.18
-8.58
-11.99
-15.30
-18.35
-20.87
-22.56
-23.17
-22.59
-20.87
-18.19
-14.75
-10.79
-6.56
-2.40
1.30
4.18
6.02
6.86
6.98
6.80
6.73
7.10
8.00
9.33
10.84
12.21
13.15
13.47
13.14
12.22
10.83
9.10
7.17
5.08
2.83
0.42
-2.23
-5.19
-8.49
-12.08
-15.75
-19.08
-21.53
-22.48
-21.45
-18.24
-13.08
-6.53
0.59
7.46
13.39
17.98
21.09
22.74
23.00
22.07
20.18
17.73
15.18
13.01
11.53
10.77
10.53
10.41
10.04
9.18
7.78
5.96
3.88
1.71
-0.45
-2.60
-4.76
-7.07
-9.69
-12.77
-16.32
-20.10
-23.56
-25.91
-26.41
-24.53
-20.22
-13.91
-6.42
1.29
8.38
14.23
18.57
21.35
22.72
22.89
22.07
20.50
18.50
16.45
14.78
13.79
13.56
13.87
14.25
14.21
13.45
12.02
10.27
8.62
7.32
6.32
5.33
3.94
1.92
-0.79
-4.06
-7.70
-11.45
-14.98
-17.81
-19.33
-18.94
-16.28
-11.51
-5.28
1.38
7.45
12.12
14.99
16.09
15.66
14.11
11.89
9.46
7.30
5.81
5.19
5.38
6.09
6.88
7.35
7.22
6.42
5.06
3.39
1.67
0.12
-1.08
-1.88
-2.36
-2.73
-3.28
-4.36
-6.14
-8.63
-11.58
-14.51
-16.84
-17.97
-17.40
-14.93
-10.62
-4.83
1.82
8.55
14.62
19.37
22.44
23.73
23.39
21.74
19.16
16.09
12.94
10.17
8.12
7.02
6.82
7.18
7.63
7.72
7.26
6.36
5.34
4.49
3.88
3.32
2.50
1.21
-0.55
-2.58
-4.69
-6.75
-8.77
-10.71
-12.34
-13.17
-12.53
-9.86
-4.91
2.06
10.39
19.09
27.13
33.63
37.93
39.67
38.82
35.67
30.83
25.23
19.97
16.10
14.20
13.99
14.27
13.26
9.48
2.43
-6.96
-16.73
-24.73
-29.53
-31.02
-30.19
-28.56
-27.41
-27.33
-28.17
-29.37
-30.25
-30.25
-28.99
-26.22
-21.92
