1560287836.00
64.000000
-0.00
-0.00
-0.00
-0.00
-0.00
-0.00
-0.00
-0.00
-0.00
-0.00
0.00
0.01
0.01
-0.00
-0.03
-0.05
-0.05
0.00
0.13
0.36
0.66
1.01
1.37
1.72
2.06
2.40
2.79
3.24
3.80
4.42
5.06
5.66
6.20
6.68
7.15
7.68
8.31
9.14
10.09
11.04
11.88
12.56
13.14
13.76
14.65
15.96
17.91
20.32
22.90
25.38
27.58
29.57
31.68
34.32
37.81
42.54
48.15
54.10
59.83
64.97
69.58
74.14
79.34
85.71
93.76
103.00
112.62
121.73
129.77
136.75
143.30
150.75
157.77
166.64
177.95
191.79
206.97
220.57
228.25
225.36
208.53
176.87
132.76
80.05
23.07
-34.94
-92.44
-149.16
-205.23
-260.37
-313.74
-363.87
-409.83
-450.91
-486.50
-515.74
-537.23
-549.22
-549.96
-538.37
-514.21
-478.67
-433.88
-382.45
-327.02
-269.84
-212.63
-156.66
-102.95
-52.37
-5.90
35.58
71.43
101.35
125.50
144.38
158.69
169.15
176.37
180.75
182.57
182.07
179.51
175.23
169.65
163.18
156.15
148.81
141.30
133.69
126.02
118.33
110.69
103.16
95.80
88.68
81.83
75.25
68.95
62.95
57.25
51.86
46.78
42.03
37.59
33.45
29.61
26.07
22.81
19.83
17.11
14.67
12.48
10.54
8.83
7.35
6.07
4.97
4.05
3.27
2.62
2.09
1.65
1.30
1.01
0.79
0.61
0.47
0.37
0.29
0.23
0.19
0.16
0.14
0.13
0.13
0.14
0.14
0.16
0.17
0.19
0.20
0.22
0.24
0.26
0.28
0.31
0.34
0.37
0.40
0.44
0.49
0.54
0.59
0.66
0.73
0.80
0.89
0.99
1.10
1.23
1.37
1.52
1.69
1.88
2.08
2.30
2.54
2.80
3.07
3.37
3.69
4.03
4.40
4.79
5.21
5.66
6.14
6.66
7.21
7.81
8.44
9.12
9.84
10.63
11.46
12.37
13.31
14.27
15.22
16.10
16.85
17.38
17.64
17.55
17.12
16.34
15.27
13.97
12.55
11.15
9.89
8.90
8.21
7.88
7.88
8.15
8.62
9.17
9.71
10.15
10.45
10.57
10.54
10.35
10.00
9.51
8.88
8.08
7.09
5.85
4.35
2.58
0.52
-1.78
-4.25
-6.74
-9.12
-11.16
-12.67
-13.45
-13.28
-12.16
-10.11
-7.16
-3.41
1.07
6.14
11.65
17.55
23.80
30.07
36.20
42.12
47.83
53.37
58.86
64.46
70.37
76.87
83.62
90.49
97.39
104.26
111.11
117.98
124.96
132.17
139.82
147.36
154.46
160.83
166.21
170.23
172.37
171.73
166.68
160.00
152.22
143.54
134.04
123.85
113.14
102.16
91.14
80.31
69.86
59.22
48.05
36.29
24.13
12.10
0.83
-9.11
-17.41
-24.11
-30.09
-36.19
-43.02
-50.74
-59.16
-67.84
-76.48
-85.13
-94.32
-105.13
-118.40
-134.33
-152.39
-171.48
-190.48
-208.71
-226.23
-243.52
-261.27
-279.71
-298.88
-319.22
-342.02
-368.91
-400.25
-433.63
-463.06
-480.29
-477.58
-450.60
-400.03
-330.74
-249.77
-164.29
-80.98
-6.40
52.47
89.12
99.82
85.95
55.10
19.44
-8.11
-18.25
-8.32
17.43
49.78
78.50
95.95
99.56
92.15
80.31
71.38
70.31
77.71
89.93
101.23
106.29
101.67
85.85
58.06
17.54
-35.58
-98.24
-162.67
-217.02
-248.94
-250.68
-223.13
-176.19
-124.99
-83.72
-60.33
-54.69
-60.46
-69.05
-73.52
-70.12
-57.61
-35.52
-3.05
40.32
92.98
149.57
201.00
236.69
248.33
233.09
194.70
141.76
84.23
30.01
-16.61
-54.57
-84.08
-105.08
-117.04
-119.97
-115.54
-107.25
-98.92
-92.70
-87.64
-80.10
-65.60
-41.58
-9.21
26.43
58.04
78.79
84.51
74.88
52.97
24.01
-6.18
-32.19
-49.68
-55.84
-49.91
-33.75
-11.95
8.96
22.29
23.61
12.86
-5.08
-21.61
-27.18
-14.78
17.53
65.43
119.21
166.34
194.98
197.68
173.83
130.24
78.98
33.47
3.71
-6.92
-2.20
9.32
18.31
18.25
7.17
-12.79
-37.02
-60.40
-78.33
-87.08
-83.71
-66.20
-33.58
13.84
74.04
142.86
213.44
276.44
321.30
339.04
325.57
284.07
224.52
160.25
102.73
56.93
20.03
-15.94
-58.76
-110.84
-167.05
-216.69
-248.09
-253.42
-231.36
-186.98
-129.59
-70.25
-19.96
11.34
15.77
-10.61
-65.86
-141.22
-222.44
-293.48
-341.30
-359.59
-349.88
-319.66
-278.81
-236.13
-197.29
-164.50
-137.44
-114.48
-93.72
-73.58
-53.03
-31.60
-9.43
12.98
35.25
57.54
80.74
106.46
136.27
170.73
208.41
245.41
275.70
292.60
290.70
268.13
228.04
178.29
129.62
92.63
74.81
78.95
103.61
144.85
198.39
260.45
327.19
393.46
452.28
495.77
517.61
515.61
492.56
455.14
410.97
365.65
321.16
276.20
227.87
173.70
113.35
49.41
-12.63
-65.57
-102.89
-121.40
-123.38
-116.58
-111.92
-119.77
-146.43
-192.14
-251.49
-315.59
-374.73
-420.53
-447.08
-451.31
-432.98
-394.57
-340.86
-278.31
-213.74
-152.99
-99.88
-55.35
-17.32
18.75
58.21
105.28
161.18
223.31
285.88
341.58
383.37
406.02
407.23
388.54
355.74
318.18
286.36
268.46
267.10
278.19
292.87
301.60
298.25
282.24
257.40
228.71
199.15
168.62
135.54
99.67
64.07
34.73
17.88
16.65
29.01
48.03
64.37
69.93
60.79
38.19
7.54
-24.05
-50.39
-67.95
-76.51
-78.39
-77.34
-77.24
-81.12
-90.86
-107.51
-131.79
-163.96
-202.80
-244.19
-280.81
-303.75
-306.22
-287.45
-254.55
-220.58
-199.46
-200.12
-222.99
-260.58
-301.61
-335.96
-357.78
-365.47
-359.58
-340.62
-308.69
-264.77
-212.47
-158.62
-111.68
-79.22
-65.22
-68.75
-84.65
-105.30
-122.93
-131.45
-127.43
-110.52
-83.46
-51.65
-22.21
-2.28
3.18
-6.69
-27.95
-52.99
-73.42
-83.57
-82.81
-75.67
-69.41
-70.35
-80.53
-96.76
-112.01
-118.72
-111.96
-91.04
-58.83
-19.90
21.79
64.14
106.77
150.28
195.39
242.69
292.54
344.80
398.01
448.66
491.29
519.65
529.00
518.04
489.62
449.65
404.86
360.59
319.72
283.02
250.26
221.22
195.85
173.74
153.44
132.49
108.01
77.73
40.89
-1.58
-47.51
-94.60
-141.36
-187.52
-233.76
-280.81
-328.52
-375.05
-416.83
-448.98
-466.27
-464.60
-442.01
-399.68
-342.36
-278.10
-216.90
-168.78
-140.86
-134.92
-146.63
-166.52
-182.91
-185.50
-168.53
-132.42
-83.98
-34.65
2.51
16.57
2.21
-38.20
-95.01
-154.39
-203.12
-233.02
-242.82
-236.91
-221.79
-202.48
-180.94
-156.87
-129.73
-100.34
-70.88
-43.48
-18.84
4.24
28.29
55.39
86.19
119.71
154.18
188.63
224.07
263.59
310.93
368.04
432.83
498.40
554.69
591.90
604.32
592.46
562.58
523.78
484.34
449.08
418.80
391.60
364.86
336.61
305.88
272.22
235.31
194.93
151.09
104.57
56.74
9.28
-36.42
-79.95
-122.10
-164.64
-209.74
-258.76
-311.06
-363.39
-410.38
-445.99
-465.50
-466.87
-450.95
-420.59
-379.43
-330.57
-276.12
-217.34
-155.20
-90.77
-25.49
38.91
99.97
153.92
195.98
221.24
226.08
209.34
172.55
119.64
56.71
-9.00
-70.37
-120.98
-156.06
-173.72
-176.08
-169.46
-163.26
-166.15
-183.64
-216.57
-260.25
-305.60
-341.98
-360.44
-356.19
-329.36
-282.43
-219.27
-144.67
-63.65
18.76
97.10
165.85
221.79
257.28
268.60
261.25
246.67
234.95
230.25
230.83
232.38
231.00
225.02
216.58
210.26
208.25
210.44
214.81
217.65
215.67
207.14
192.46
174.52
157.04
141.86
127.96
115.25
101.90
86.14
67.23
46.11
26.14
12.08
8.03
15.86
34.02
56.41
74.95
82.60
76.04
56.93
30.47
2.40
-23.47
-46.52
-70.50
-99.40
-135.05
-176.60
-221.88
-268.75
-315.14
-357.82
-391.57
-413.56
-421.20
-412.68
-387.90
-349.10
-299.85
-242.73
-178.40
-106.84
-35.33
26.04
67.85
85.00
77.59
50.59
12.71
-26.66
-60.80
-94.27
-134.95
-187.88
-252.08
-323.16
-397.23
-473.04
-552.23
-596.19
-579.54
-502.48
-389.39
-266.64
-149.38
-44.69
42.95
109.90
155.14
174.93
169.82
146.22
114.66
85.07
62.53
50.89
51.36
62.79
76.18
80.90
69.13
39.36
-3.87
-51.58
-92.54
-116.91
-119.34
-103.53
-77.11
-48.65
-23.92
-4.92
9.27
21.09
32.43
43.73
52.55
56.49
55.03
50.37
46.21
45.86
51.06
61.57
75.67
90.62
104.32
116.07
126.86
138.51
152.52
169.46
188.88
209.90
231.51
252.40
270.32
282.11
284.42
275.25
255.62
229.99
205.15
187.65
181.31
185.94
198.14
213.37
227.94
239.89
248.66
254.02
255.46
252.16
243.49
229.41
210.32
186.77
159.53
129.73
99.15
70.06
44.50
23.32
5.69
-10.55
-28.06
-49.17
-75.33
-106.88
-142.62
-179.39
-211.88
-233.39
-237.74
-221.69
-186.55
-138.09
-84.47
-33.37
10.12
44.02
68.28
83.34
89.23
86.00
74.83
58.70
42.18
29.94
25.01
27.53
34.68
41.75
44.19
39.52
28.29
13.81
0.56
-7.96
-10.96
-10.83
-12.16
-19.86
-37.30
-65.20
-101.51
-142.16
-181.98
-215.73
-238.93
-248.58
-243.76
-225.81
-198.10
-164.95
-130.48
-97.76
-68.40
-42.91
-20.98
-1.68
16.61
35.95
58.17
83.69
110.64
135.01
152.18
158.99
155.21
143.67
128.61
113.48
99.38
84.93
67.46
44.56
15.40
-18.71
-54.35
-86.33
-108.65
-115.85
-104.57
-75.07
-31.73
17.79
64.57
100.95
122.25
127.46
118.62
99.75
75.73
51.38
30.60
15.65
6.43
0.42
-6.65
-19.13
-39.59
-67.16
-97.07
-121.75
-133.19
-125.88
-99.21
-58.47
-13.78
22.59
39.83
32.03
0.09
-48.31
-101.03
-145.25
-171.54
-176.55
-163.51
-140.17
-115.29
-95.24
-82.11
-73.93
-66.56
-56.07
-40.51
-20.58
0.75
19.23
30.51
31.40
21.07
1.85
-20.86
-39.83
-48.37
-42.85
-24.20
2.24
28.57
47.12
52.68
43.89
23.08
-4.66
-32.90
-55.20
-66.40
-63.57
-46.60
-18.22
16.83
53.10
85.76
111.53
128.76
136.98
136.14
126.30
107.81
81.99
51.59
20.93
-4.87
-20.97
-24.20
-13.90
7.74
36.11
65.07
88.20
100.35
99.05
85.35
63.61
40.14
21.06
10.20
7.82
10.76
13.71
11.03
-1.54
-25.76
-60.57
-102.37
-145.66
-184.15
-212.02
-225.14
-221.98
-203.86
-174.47
-138.84
-102.15
-68.45
-39.83
-16.04
5.29
27.60
53.98
85.67
121.11
156.07
184.66
201.04
201.30
184.54
153.31
112.95
70.20
31.31
0.15
-23.12
-42.29
-63.58
-92.65
-131.29
-175.42
-215.76
-241.23
-243.67
-221.39
-179.89
-129.25
-79.74
-37.96
-5.31
20.66
43.59
66.02
88.94
112.51
137.08
163.16
190.43
216.64
237.65
248.90
247.19
232.02
205.31
169.72
126.68
75.62
14.97
-55.52
-132.57
-209.04
-275.60
-323.99
-349.97
-354.60
-343.20
-322.91
-299.92
-277.88
-257.89
-239.65
-222.58
-206.44
-190.97
-175.49
-158.74
-139.46
-117.33
-93.44
-69.99
-49.63
-34.21
-24.12
-18.12
-13.59
-7.12
4.78
24.47
52.15
85.31
119.51
150.09
174.24
191.97
205.56
217.50
228.24
235.43
235.05
224.02
202.58
174.95
147.80
127.32
116.51
114.20
116.10
117.22
114.17
106.19
94.81
82.40
70.46
59.07
47.35
34.70
21.79
10.69
3.84
2.72
6.81
13.76
20.49
24.59
25.43
24.16
23.17
25.19
32.59
47.07
69.54
99.79
136.16
175.18
211.77
240.29
255.94
256.31
242.04
216.44
184.24
150.06
117.27
87.61
61.55
38.86
19.12
1.87
-13.39
-27.15
-39.66
-50.64
-59.16
-63.91
-63.71
-58.25
-48.40
-36.11
-23.76
-13.30
-5.60
-0.22
4.24
9.53
17.13
27.88
41.92
58.77
77.49
96.76
115.06
130.91
143.24
151.65
156.47
158.39
158.11
155.91
151.67
145.09
136.03
124.74
111.79
97.86
83.43
68.63
53.26
37.01
19.76
1.95
-15.12
-29.27
-37.78
-38.12
-28.99
-11.02
13.26
40.01
65.41
86.61
102.35
112.68
118.34
120.23
119.13
115.87
111.25
105.87
99.75
92.46
83.79
74.76
68.18
67.95
77.33
96.93
123.76
151.94
174.96
188.20
190.36
183.16
169.73
152.78
133.73
113.01
91.02
68.81
48.05
30.24
15.82
3.71
-8.49
-23.77
-44.79
-72.95
-107.74
-146.43
-184.59
-217.04
-239.50
-249.98
-249.44
-241.54
-231.46
-224.48
-224.67
-234.21
-253.11
-279.40
-309.56
-339.21
-364.16
-381.48
-390.11
-390.70
-384.55
-372.49
-354.26
-328.83
-295.10
-252.55
-201.46
-142.93
-79.08
-13.64
47.49
96.62
125.91
130.25
109.61
69.94
21.65
-23.92
-58.02
-76.89
-81.67
-76.69
-66.88
-56.05
-46.18
-37.86
-30.97
-25.20
-20.06
-14.67
-7.69
2.20
15.55
31.54
47.84
61.23
68.95
69.93
65.49
58.97
54.32
54.36
59.36
66.84
72.61
72.63
64.72
49.37
29.30
8.01
-11.62
-28.18
-41.69
-52.90
-62.58
-71.12
-78.48
-84.30
-87.86
-88.02
-83.26
-72.08
-53.71
-28.73
0.64
30.99
58.66
80.81
96.15
104.99
108.74
108.97
106.70
102.10
94.73
84.27
71.10
56.65
42.97
31.91
24.25
19.16
14.39
6.96
-5.98
-26.66
-56.47
-95.80
-143.63
-196.88
-249.99
-295.39
-324.97
-332.32
-314.68
-273.98
-216.42
-150.95
-87.02
-32.65
7.02
30.35
39.09
37.47
30.90
24.34
21.09
22.15
26.27
30.54
31.17
24.48
7.94
-18.63
-52.29
-87.32
-116.85
-135.56
-142.02
-139.58
-134.91
-135.05
-144.27
-162.35
-184.85
-204.96
-215.96
-213.07
-194.34
-160.59
-115.02
-62.28
-7.64
44.17
89.94
128.66
161.50
191.17
221.21
254.99
294.64
339.90
387.34
430.53
461.56
473.80
464.34
435.16
392.15
342.32
290.64
238.51
184.61
127.73
69.80
16.84
-22.77
-42.28
-40.42
-23.06
-1.55
11.22
5.29
-23.19
-71.39
-131.50
-193.54
-248.09
-288.11
-309.68
-311.94
-296.58
-267.13
-228.18
-184.78
-141.86
-103.85
-73.99
-53.64
-41.84
-35.46
-30.18
-22.12
-9.15
8.40
28.41
48.06
64.92
77.50
85.06
87.23
83.90
75.62
63.83
50.94
39.55
31.35
26.28
22.55
17.52
9.17
-2.84
-17.00
-30.83
-42.28
-50.68
-56.80
-61.88
-66.39
-69.34
-68.45
-61.40
-47.06
-26.40
-2.37
21.10
40.49
53.86
61.29
64.57
66.20
68.07
70.61
72.56
71.64
65.71
53.86
36.84
16.53
-5.17
-27.49
-51.38
-78.99
-112.31
-151.20
-192.41
-229.81
-256.03
-265.01
-254.04
-224.46
-180.61
-128.24
-73.12
-20.88
22.73
52.04
62.94
55.18
34.11
9.99
-5.26
-2.63
20.24
58.54
102.73
142.84
172.05
188.18
192.83
189.13
179.85
166.41
149.12
127.92
102.98
75.24
46.24
17.80
-8.33
-30.87
-49.12
-63.18
-74.05
-83.79
-95.22
-111.05
-132.49
-158.03
-183.06
-200.99
-205.49
-193.02
-164.27
-123.90
-78.83
-35.92
-0.15
25.91
41.78
48.22
46.90
40.18
31.19
23.44
19.97
22.56
31.17
44.13
58.89
73.02
84.87
93.88
100.18
103.93
104.57
100.55
89.68
70.01
41.25
5.66
-31.76
-64.40
-85.97
-92.56
-84.11
-64.64
-41.08
-21.11
-10.66
-11.95
-22.61
-36.54
-45.95
-44.13
-27.71
2.28
40.91
81.12
115.79
139.52
149.45
145.35
129.15
104.50
76.21
49.49
28.87
16.98
13.74
16.19
19.54
18.90
11.29
-3.09
-20.81
-36.50
-44.88
-42.80
-30.35
-10.67
11.32
30.65
43.87
49.56
48.20
41.20
30.00
15.47
-2.13
-22.76
-45.97
-70.33
-93.28
-111.36
-121.14
-120.23
-108.36
-87.70
-62.36
-37.09
-15.88
-1.00
7.09
8.94
5.45
-2.54
-13.79
-25.97
-35.31
-37.05
-26.81
-2.10
36.49
85.23
138.22
189.09
232.55
265.30
286.01
294.49
290.66
274.09
244.41
202.33
150.75
94.81
40.93
-5.08
-39.78
-62.99
-77.25
-86.50
-94.51
-104.01
-116.31
-131.39
-147.96
-163.33
-173.53
-173.97
-160.99
-133.72
-95.40
-53.28
-16.74
5.73
9.68
-3.57
-27.29
-51.86
-68.13
-70.38
-57.62
-33.05
-2.11
29.74
58.42
81.60
98.26
108.07
111.13
108.15
100.71
91.31
82.77
77.38
76.07
77.97
80.76
81.44
77.39
67.09
50.33
28.00
1.61
-27.09
-56.22
-83.62
-106.78
-123.16
-130.84
-129.14
-118.99
-102.57
-82.53
-61.26
-40.52
-21.69
-6.14
4.63
9.24
7.10
-1.22
-14.00
-29.06
-44.44
-58.86
-71.50
-81.17
-85.79
-82.29
-67.62
-40.21
-1.23
45.07
92.28
133.56
163.65
180.08
183.29
175.84
161.05
141.90
120.50
98.09
75.51
53.63
33.66
17.12
5.37
-1.05
-3.09
-3.26
-5.02
-11.62
-24.80
-44.09
-67.00
-89.72
-107.98
-117.63
-114.95
-97.07
-62.94
-14.36
43.19
101.06
149.24
179.07
185.66
169.06
133.77
87.18
37.64
-7.06
-40.70
-59.24
-61.33
-48.61
-25.60
1.26
25.23
41.19
46.99
43.68
34.67
24.08
15.10
9.00
5.06
1.20
-4.98
-15.25
-30.01
-48.29
-68.04
-86.95
-103.20
-116.13
-126.45
-136.02
-147.04
-161.03
-177.89
-195.32
-209.04
-213.65
-204.31
-178.42
-136.96
-84.69
-29.09
21.57
60.45
83.60
90.45
83.29
66.13
43.74
20.85
1.87
-9.28
-9.59
2.49
26.25
58.26
92.69
122.55
141.66
146.45
136.84
115.90
88.05
57.26
25.80
-5.67
-36.89
-66.65
-92.24
-110.07
-117.24
-113.11
-99.96
-82.42
-66.22
-56.49
-56.54
-66.99
-85.54
-107.22
-125.46
-133.47
-125.90
-100.28
-57.87
-3.70
54.41
107.45
147.23
168.19
168.62
150.90
120.64
85.15
51.70
26.04
11.54
9.12
17.40
33.23
52.31
70.16
83.30
90.24
91.83
90.56
89.18
89.18
89.74
87.89
79.60
61.50
32.53
-5.19
-46.69
-85.47
-115.58
-133.60
-139.81
-138.16
-135.00
-136.77
-147.54
-167.28
-191.44
-212.17
-221.03
-212.19
-184.84
-143.79
-97.90
-56.89
-28.07
-14.29
-14.16
-23.74
-38.74
-55.88
-72.87
-87.58
-97.18
-98.34
-88.16
-65.52
-31.83
9.14
52.50
93.57
128.92
156.47
175.15
184.16
182.50
169.36
144.90
111.22
72.71
35.44
5.61
-12.43
-17.28
-10.65
3.81
22.22
41.93
62.26
84.19
109.71
140.81
178.84
223.97
274.88
328.59
380.60
425.53
458.16
474.83
474.34
458.40
431.11
397.74
363.34
331.62
304.47
282.03
263.31
246.87
231.35
215.78
199.50
182.12
163.45
143.53
122.52
100.74
78.36
55.61
32.69
9.75
-13.01
-35.38
-57.22
-78.47
-99.28
-120.29
-142.01
-164.79
-188.89
-214.53
-241.75
-270.52
-300.76
-332.45
-366.31
-403.02
-443.56
-489.15
-540.31
-595.55
-650.55
-698.60
-732.53
-748.08
-744.00
-722.48
-687.90
-644.45
-594.40
-538.03
-474.87
-405.27
-332.07
-257.45
-182.03
-105.29
-26.87
51.46
124.85
187.08
240.36
282.52
313.13
334.94
351.30
362.96
367.48
361.65
345.36
322.30
296.78
273.06
253.27
235.87
218.49
199.48
177.59
152.52
124.53
93.41
60.88
30.39
6.01
-9.04
-9.90
3.23
26.21
52.35
73.52
83.74
80.57
65.14
41.48
15.45
-7.56
-23.03
-28.28
-24.43
-15.21
-5.20
1.47
2.32
-1.53
-9.08
-18.75
-28.59
-37.69
-45.01
-48.51
-46.23
-37.33
-22.51
-3.76
16.52
39.72
66.15
94.21
120.50
140.01
148.02
142.52
125.37
99.15
72.55
53.69
42.79
35.76
26.83
12.38
-8.54
-33.79
-58.95
-78.80
-90.77
-95.24
-94.12
-90.12
-85.63
-81.86
-78.74
-75.31
-69.97
-62.19
-52.03
-39.19
-23.11
-3.21
20.64
47.65
75.96
102.82
124.17
135.70
134.18
117.98
87.21
43.78
-8.52
-63.87
-114.47
-151.82
-168.44
-160.17
-128.24
-79.67
-25.64
21.95
53.98
66.32
59.84
38.76
8.62
-25.36
-58.64
-87.06
-106.67
-114.24
-108.27
-89.99
-63.32
-33.93
-7.18
13.74
28.74
40.20
51.12
63.27
76.12
87.18
93.38
92.37
83.22
66.14
41.82
11.07
-24.91
-63.95
-102.57
-136.34
-160.86
-172.97
-171.76
-158.82
-137.86
-113.87
-91.90
-75.70
-66.71
-63.45
-61.85
-56.42
-41.87
-14.75
25.29
75.36
129.90
182.22
226.19
257.83
276.06
282.49
280.32
272.78
261.75
247.20
227.42
200.15
164.08
120.18
72.37
27.05
-8.69
-29.47
-34.11
-26.66
-15.48
-10.20
-18.09
-41.24
-75.94
-114.42
-147.89
-169.60
-176.32
-168.36
-148.30
-119.62
-85.90
-50.76
-18.02
8.38
25.10
30.53
25.73
14.51
2.39
-5.28
-5.17
2.82
15.74
28.90
37.78
39.66
34.44
24.20
12.01
0.54
-8.93
-16.85
-25.17
-36.84
-54.83
-81.01
-114.81
-152.51
-187.57
-212.63
-222.40
-216.27
-199.07
-179.45
-166.27
-164.81
-174.73
-190.53
-204.43
-209.85
-203.90
-187.89
-165.73
-141.71
-118.54
-96.80
-75.65
-54.21
-32.72
-12.68
4.20
17.27
27.98
39.71
56.58
81.80
116.76
161.11
213.40
271.42
331.94
390.14
439.48
472.84
484.67
473.02
440.30
392.13
334.89
273.36
209.87
145.33
81.13
20.58
-31.51
-70.59
-94.61
-105.11
-106.66
-104.95
-104.51
-107.41
-113.18
-120.17
-127.11
-134.01
-141.90
-151.57
-162.24
-170.97
-173.47
-165.82
-146.35
-116.69
-81.36
-46.23
-16.38
5.29
18.49
24.89
26.91
26.64
25.39
23.84
22.40
21.57
21.94
23.94
27.47
31.86
35.98
38.66
39.16
37.37
33.64
28.45
21.99
14.11
4.65
-6.17
-17.32
-26.96
-32.90
-33.32
-27.31
-15.28
1.21
19.87
38.28
54.36
66.69
74.57
77.89
77.00
72.57
65.46
56.60
46.92
37.17
27.91
19.48
12.06
5.80
0.80
-2.94
-5.59
-7.57
-9.61
-12.60
-17.40
-24.51
-33.68
-43.77
-52.75
-58.14
-57.75
-50.33
-36.23
-17.25
3.79
23.87
40.52
52.24
58.57
59.89
57.14
51.52
44.27
36.46
28.82
21.70
15.06
8.73
2.53
-3.51
-9.15
-14.04
-17.91
-20.72
-22.83
-25.05
-28.48
-34.10
-42.23
-52.08
-61.67
-68.31
-69.45
-63.58
-50.80
-32.74
-12.00
8.67
27.08
41.86
52.44
58.82
61.29
60.37
56.73
51.20
44.62
37.76
31.12
24.89
18.97
13.16
7.32
1.60
-3.68
-8.17
-11.70
-14.58
-17.51
-21.47
-27.38
-35.65
-45.89
-56.80
-66.31
-72.09
-72.23
-65.88
-53.64
-37.46
-20.12
-4.42
7.45
14.30
15.93
12.84
6.02
-3.30
-13.79
-24.31
-34.06
-42.82
-50.90
-58.92
-67.52
-77.00
-87.25
-97.81
-107.97
-117.07
-124.66
-130.80
-136.16
-141.98
-149.75
-160.47
-174.04
-188.87
-202.01
-209.86
-209.15
-197.83
-175.76
-144.82
-108.61
-71.62
-38.09
-10.95
8.86
22.44
32.25
41.01
50.79
62.44
75.68
89.49
102.62
114.04
123.09
129.52
133.41
135.15
135.19
133.99
131.83
128.77
124.59
118.86
111.01
100.61
87.55
72.47
56.85
42.99
33.43
30.25
34.43
45.49
61.71
80.59
99.53
116.28
129.26
137.77
142.01
143.04
142.63
142.83
145.47
151.77
162.03
175.71
191.47
207.36
220.92
229.42
230.30
221.67
202.92
174.94
139.97
101.03
61.18
22.72
-13.02
-45.98
-77.12
-108.16
-141.20
-178.42
-221.76
-272.31
-329.21
-388.69
-443.65
-484.85
-503.66
-495.01
-459.49
-403.05
-334.61
-262.54
-191.64
-122.35
-52.60
18.97
90.49
156.39
209.55
244.38
259.37
257.75
246.11
231.16
216.94
203.49
188.03
167.82
142.10
112.88
84.00
60.10
44.27
37.23
38.17
45.58
59.29
79.14
103.19
127.40
148.04
161.67
166.22
161.60
148.43
130.10
109.83
89.35
69.79
55.09
48.99
53.27
66.40
82.29
96.75
106.48
109.36
105.92
102.44
105.75
120.06
145.20
175.18
206.54
236.68
263.47
263.66
224.61
150.03
59.07
-10.77
-56.77
-83.08
-93.26
-94.08
-88.83
-78.27
-65.17
-54.75
-53.28
-67.78
-97.56
-137.86
-182.41
-223.60
-250.87
-254.66
-229.29
-175.97
-105.31
-30.64
32.59
70.12
73.24
42.01
-16.54
-90.97
-168.29
-236.88
-284.87
-303.87
-291.50
-252.27
-195.88
-134.84
-80.68
-40.66
-16.56
-3.79
4.72
15.26
30.34
49.12
68.32
83.74
91.60
89.32
77.28
58.28
38.09
23.13
20.09
33.48
62.97
101.91
138.56
160.68
159.27
132.80
84.64
22.95
-42.72
-104.42
-157.74
-201.81
-236.80
-264.28
-285.27
-303.79
-323.49
-346.44
-372.42
-399.46
-425.34
-447.07
-463.65
-454.70
-408.75
-327.32
-225.62
-123.03
-33.01
32.29
78.28
110.13
130.89
138.69
132.75
115.50
91.65
67.27
47.46
36.33
35.05
42.59
53.34
63.27
72.06
83.04
101.63
131.88
174.38
224.14
271.57
303.47
311.74
296.13
262.92
221.50
179.99
136.18
90.20
51.84
21.44
-4.38
-26.55
-46.38
-66.22
-89.15
-117.55
-151.01
-187.30
-223.70
-254.98
-275.13
-280.34
-270.26
-248.37
-220.64
-192.69
-168.77
-151.28
-138.68
-127.20
-113.54
-96.07
-74.85
-50.88
-24.44
4.49
35.64
69.40
106.34
146.42
189.00
232.82
275.88
315.67
348.93
371.79
381.24
375.76
355.66
323.15
281.99
236.53
191.02
148.75
111.89
81.88
59.71
45.93
40.43
42.24
49.29
58.51
66.32
69.36
65.30
53.29
34.06
9.63
-17.08
-42.98
-65.27
-82.03
-92.45
-96.90
-96.66
-93.54
-89.32
-85.17
-81.34
-77.13
-71.44
-63.39
-52.97
-41.21
-29.93
-21.14
-16.43
-16.65
-21.72
-30.76
-42.13
-53.67
-62.95
-67.80
-66.86
-60.00
-48.40
-34.19
-19.79
-7.19
2.52
9.22
13.53
16.36
18.54
20.56
22.48
24.07
24.97
24.90
23.70
21.35
17.92
13.54
8.34
2.44
-4.14
-11.48
-19.72
-28.85
-38.57
-48.09
-56.12
-61.23
-62.21
-58.53
-50.46
-39.03
-25.65
-11.73
1.50
13.14
22.44
28.82
31.80
31.21
27.33
20.98
13.41
5.98
-0.18
-4.48
-6.99
-8.31
-9.18
-10.26
-11.82
-13.84
-16.23
-19.01
-22.33
-26.15
-30.01
-32.80
-32.96
-29.03
-20.32
-7.33
8.27
24.14
38.02
48.43
54.91
57.89
58.28
56.98
54.54
51.14
46.79
41.48
35.47
29.19
23.18
17.85
13.42
9.95
7.46
5.91
5.10
4.44
2.94
-0.49
-6.46
-14.49
-22.85
-28.94
-30.28
-25.39
-14.41
1.06
18.56
35.65
50.44
61.87
69.52
73.43
73.87
71.34
66.49
60.09
52.89
45.42
37.91
30.34
22.49
14.18
5.39
-3.74
-12.99
-22.19
-31.31
-40.36
-49.20
-57.30
-63.67
-67.05
-66.27
-60.82
-51.03
-38.07
-23.56
-9.06
4.36
16.22
26.48
35.17
42.13
46.99
49.32
48.96
46.02
40.94
34.29
26.54
18.06
9.10
0.00
-8.81
-16.84
-23.80
-29.71
-34.93
-39.88
-44.64
-48.70
-51.01
-50.31
-45.72
-37.12
-25.29
-11.60
2.44
15.54
26.76
35.49
41.30
44.06
43.90
41.38
37.30
32.45
27.41
22.41
17.44
12.51
7.75
3.43
-0.24
-3.38
-6.55
-10.60
-16.24
-23.67
-32.22
-40.44
-46.54
-49.00
-47.16
-41.40
-32.96
-23.38
-13.97
-5.56
1.46
6.89
10.45
11.79
10.74
7.57
3.00
-1.84
-5.96
-8.79
-10.34
-11.02
-11.39
-11.82
-12.38
-13.03
-13.74
-14.70
-16.20
-18.29
-20.56
-22.07
-21.54
-17.95
-10.97
-1.31
9.57
19.87
28.14
33.65
36.45
37.05
36.01
33.67
30.10
25.36
19.77
13.95
8.65
4.44
1.48
-0.50
-2.00
-3.47
-5.25
-7.59
-10.80
-15.23
-21.04
-27.92
-34.81
-40.13
-42.23
-39.97
-33.21
-22.78
-10.20
2.90
15.12
25.44
33.17
37.84
39.12
37.03
32.02
25.05
17.43
10.39
4.73
0.52
-2.85
-6.30
-10.62
-16.11
-22.49
-29.16
-35.51
-41.15
-45.88
-49.49
-51.49
-51.09
-47.50
-40.38
-30.22
-18.30
-6.36
4.05
12.01
17.40
20.61
22.18
22.39
21.31
18.92
15.39
11.21
7.13
3.81
1.58
0.25
-0.81
-2.46
-5.38
-9.91
-15.81
-22.37
-28.51
-33.09
-35.15
-34.08
-29.78
-22.64
-13.45
-3.33
6.57
15.22
21.95
26.41
28.50
28.12
25.19
19.74
12.16
3.42
-5.15
-12.09
-16.42
-17.90
-17.04
-14.80
-12.24
-10.15
-9.02
-9.06
-10.24
-12.27
-14.57
-16.31
-16.60
-14.83
-10.81
-4.98
1.85
8.64
14.44
18.56
20.70
20.81
19.07
15.68
10.87
4.85
-2.03
-9.24
-16.00
-21.39
-24.67
-25.44
-23.89
-20.70
-16.90
-13.43
-10.90
-9.40
-8.48
-7.43
-5.54
-2.35
2.20
7.89
14.34
21.04
27.45
32.94
36.85
38.55
37.68
34.26
28.77
21.98
14.76
7.85
1.65
-3.69
-8.15
-11.73
-14.40
-16.20
-17.43
-18.66
-20.61
-23.84
-28.37
-33.42
-37.69
-39.75
-38.71
-34.59
-28.27
-21.00
-13.87
-7.44
-1.69
3.57
8.40
12.56
15.62
17.25
17.44
16.53
15.05
13.38
11.73
10.03
8.14
5.91
3.37
0.59
-2.37
-5.62
-9.47
-14.35
-20.53
-27.89
-35.77
-43.00
-48.28
-50.55
-49.34
-44.85
-37.80
-29.11
-19.59
-9.88
-0.59
7.54
13.62
16.76
16.48
13.04
7.46
1.33
-3.74
-6.72
-7.38
-6.30
-4.53
-3.11
-2.77
-3.81
-6.10
-9.22
-12.55
-15.32
-16.72
-15.98
-12.65
-6.75
1.20
10.22
19.16
26.97
32.94
36.82
38.67
38.73
37.25
34.40
30.38
25.55
20.51
16.05
12.86
11.27
11.05
11.49
11.65
10.81
8.66
5.39
1.55
-2.13
-4.86
-5.81
-4.21
0.60
8.90
20.41
34.25
48.97
62.98
74.84
83.51
88.57
90.13
88.74
85.22
80.41
75.06
69.70
64.76
60.54
57.22
54.67
52.26
48.89
43.34
34.90
23.95
12.07
1.50
-5.83
-9.04
-8.50
-5.33
-0.70
4.65
10.36
16.11
21.17
24.46
24.99
22.33
16.88
9.75
2.61
-2.48
-3.21
2.67
16.68
38.75
66.85
97.39
126.44
151.23
170.81
185.74
196.83
204.07
206.23
201.77
190.04
172.31
151.47
130.80
112.53
97.02
82.90
68.21
51.33
31.45
8.27
-18.44
-48.78
-81.94
-115.32
-144.41
-163.79
-168.95
-158.06
-132.63
-96.77
-55.52
-13.37
26.41
61.34
89.05
107.21
114.01
109.15
94.23
72.20
46.04
17.32
-14.00
-48.57
-86.15
-124.38
-159.06
-185.84
-202.29
-209.21
-210.28
-210.10
-211.99
-216.67
-222.53
-226.97
-228.08
-225.36
-219.36
-210.76
-199.76
-186.20
-170.29
-153.13
-136.47
-121.97
-110.49
-101.80
-95.20
-90.24
-87.25
-86.89
-89.35
-93.58
-97.23
-97.34
-91.49
-78.71
-59.64
-36.18
-10.55
15.28
39.88
62.25
81.63
97.29
108.64
115.30
117.31
115.12
109.59
101.75
92.54
82.58
71.99
60.49
47.55
32.70
15.77
-3.06
-23.28
-44.00
-64.00
-81.61
-94.70
-100.96
-98.40
-86.13
-64.99
-37.72
-8.49
18.05
38.00
49.02
50.76
44.48
32.53
17.57
2.04
-12.10
-23.55
-31.63
-36.25
-37.87
-37.46
-36.23
-35.42
-35.98
-38.47
-43.01
-49.54
-57.92
-68.12
-79.89
-92.48
-104.18
-112.39
-114.09
-106.91
-90.05
-64.91
-34.82
-4.13
23.11
44.17
58.04
65.24
67.11
65.21
60.94
55.36
49.30
43.42
38.12
33.53
29.47
25.56
21.49
17.09
12.46
7.84
3.46
-0.75
-5.20
-10.60
-17.60
-26.35
-36.00
-44.62
-49.57
-48.29
-39.30
-22.82
-0.90
23.24
46.15
65.09
78.52
86.13
88.46
86.49
81.35
74.14
65.82
57.14
48.56
40.20
32.01
23.88
15.88
8.33
1.69
-3.62
-7.42
-9.90
-11.71
-13.82
-17.40
-23.37
-31.95
-42.22
-52.04
-58.48
-58.75
-51.09
-35.65
-14.41
9.39
32.25
51.42
65.33
73.63
76.77
75.62
71.11
64.23
55.90
47.08
38.51
30.67
23.70
17.51
11.93
6.88
2.39
-1.51
-4.82
-7.78
-10.87
-14.79
-20.22
-27.59
-36.62
-46.16
-54.20
-58.34
-56.48
-47.57
-32.17
-12.31
9.06
28.91
44.90
55.85
61.71
63.13
61.17
56.85
50.96
44.07
36.57
28.81
21.17
14.06
7.79
2.54
-1.79
-5.46
-8.74
-11.87
-15.07
-18.65
-23.11
-28.98
-36.40
-44.68
-52.13
-56.30
-54.85
-46.46
-31.45
-11.81
9.43
29.09
44.80
55.31
60.61
61.49
59.07
54.46
48.46
41.58
34.03
25.92
17.45
8.96
0.88
-6.39
-12.58
-17.74
-22.09
-26.04
-30.10
-34.93
-41.20
-49.43
-59.61
-70.86
-81.35
-88.67
-90.54
-85.66
-74.23
-58.00
-39.72
-22.31
-8.11
1.55
6.40
6.85
3.71
-2.08
-9.58
-17.81
-25.78
-32.52
-37.19
-39.20
-38.33
-34.79
-29.19
-22.45
-15.49
-9.12
-3.79
0.32
3.08
4.22
3.25
-0.34
-6.58
-14.71
-23.10
-29.64
-32.54
-30.93
-25.17
-16.61
-7.00
2.03
9.39
14.52
17.27
17.78
16.35
13.35
9.25
4.45
-0.70
-5.98
-11.20
-16.17
-20.67
-24.58
-27.90
-30.84
-33.65
-36.52
-39.51
-42.63
-45.89
-49.19
-52.21
-54.15
-53.70
-49.43
-40.30
-26.25
-8.34
11.43
30.89
48.36
63.09
75.15
85.06
93.26
99.84
104.53
106.97
106.98
104.76
100.75
95.59
89.81
83.74
77.58
71.48
65.60
60.14
55.10
50.12
44.44
37.17
27.86
16.97
6.11
-2.29
-5.81
-2.90
6.43
20.55
36.74
52.09
64.26
71.99
75.15
74.40
70.72
65.09
58.24
50.65
42.62
34.41
26.30
18.61
11.67
5.74
0.97
-2.59
-5.00
-6.50
-7.50
-8.66
-10.82
-14.72
-20.70
-28.32
-36.21
-42.27
-44.25
-40.54
-30.79
-16.23
0.71
17.15
30.61
39.67
44.10
44.58
42.15
37.80
32.23
25.90
19.20
12.55
6.41
1.18
-2.92
-5.90
-7.98
-9.47
-10.64
-11.72
-12.95
-14.65
-17.30
-21.40
-27.12
-33.94
-40.45
-44.61
-44.31
-38.21
-26.39
-10.46
6.91
22.85
35.12
42.66
45.53
44.53
40.69
35.00
28.20
20.90
13.70
7.15
1.67
-2.50
-5.43
-7.40
-8.82
-10.05
-11.29
-12.68
-14.37
-16.66
-19.95
-24.58
-30.49
-36.90
-42.32
-44.80
-42.61
-34.95
-22.38
-6.75
9.29
23.19
33.14
38.46
39.45
37.02
32.24
26.05
19.15
12.03
5.11
-1.29
-6.87
-11.41
-14.79
-17.01
-18.18
-18.53
-18.41
-18.23
-18.48
-19.61
-21.90
-25.24
-28.98
-31.86
-32.33
-29.03
-21.40
-10.10
3.14
16.01
26.44
33.25
36.40
36.68
35.18
32.74
29.67
25.85
21.01
15.08
8.35
1.49
-4.77
-9.81
-13.34
-15.45
-16.44
-16.79
-16.97
-17.53
-19.09
-22.24
-27.21
-33.53
-39.76
-43.75
-43.26
-36.83
-24.53
-8.10
9.59
25.49
37.28
44.02
46.06
44.62
41.07
36.49
31.39
25.89
19.98
13.73
7.48
1.74
-2.99
-6.44
-8.65
-9.96
-10.90
-12.00
-13.77
-16.65
-20.93
-26.62
-33.22
-39.54
-43.81
-44.17
-39.30
-29.10
-14.87
1.01
15.84
27.43
34.68
37.64
37.14
34.39
30.46
26.07
21.61
17.13
12.59
7.92
3.18
-1.36
-5.35
-8.44
-10.43
-11.40
-11.68
-11.82
-12.48
-14.40
-18.16
-24.02
-31.55
-39.46
-45.74
-48.15
-44.96
-35.67
-21.30
-4.14
12.97
27.48
37.76
43.34
44.70
42.80
38.71
33.31
27.26
21.03
15.02
9.56
4.88
1.06
-1.98
-4.45
-6.52
-8.29
-9.75
-10.94
-12.06
-13.53
-16.02
-20.13
-26.08
-33.37
-40.63
-45.82
-46.83
-42.14
-31.54
-16.28
1.18
17.96
31.64
40.86
45.44
46.09
43.83
39.61
34.14
27.93
21.47
15.29
9.80
5.21
1.42
-1.81
-4.74
-7.39
-9.66
-11.35
-12.43
-13.18
-14.21
-16.37
-20.43
-26.71
-34.75
-43.15
-49.76
-52.20
-48.70
-38.83
-23.73
-5.89
11.72
26.56
37.23
43.47
45.84
45.18
42.22
37.49
31.52
24.92
18.42
12.69
8.06
4.52
1.76
-0.57
-2.71
-4.68
-6.43
-7.98
-9.59
-11.74
-15.10
-20.20
-27.12
-35.21
-42.94
-48.21
-48.88
-43.58
-32.20
-16.14
2.14
19.78
34.39
44.51
49.78
50.71
48.28
43.60
37.72
31.50
25.56
20.25
15.61
11.48
7.66
4.04
0.72
-2.09
-4.19
-5.59
-6.59
-7.73
-9.67
-13.03
-18.26
-25.41
-33.87
-42.31
-48.74
-51.00
-47.46
-37.65
-22.61
-4.64
13.37
28.89
40.30
47.15
49.84
49.14
45.89
40.80
34.52
27.70
21.03
15.00
9.87
5.57
1.84
-1.59
-4.82
-7.78
-10.29
-12.30
-13.95
-15.67
-18.12
-22.00
-27.79
-35.40
-43.92
-51.60
-56.26
-55.87
-49.40
-37.18
-21.01
-3.54
12.52
25.22
33.66
37.98
38.92
37.36
34.08
29.66
24.62
19.48
14.68
10.47
6.79
3.28
-0.67
-5.45
-11.06
-16.92
-22.03
-25.24
-25.84
-23.82
-20.01
-15.95
-13.29
-13.22
-15.92
-20.35
-24.53
-26.18
-23.55
-16.06
-4.41
9.75
24.59
38.72
51.56
63.14
73.58
82.66
89.60
93.33
92.94
88.09
79.12
66.96
52.76
37.64
22.60
8.57
-3.58
-13.02
-19.14
-21.84
-21.52
-19.14
-16.04
-13.58
-12.94
-14.83
-19.32
-25.67
-32.47
-37.78
-39.65
-36.71
-28.65
-16.38
-1.83
12.77
25.45
35.00
41.08
43.97
44.18
42.21
38.45
33.33
27.36
21.11
15.06
9.47
4.28
-0.73
-5.72
-10.59
-14.95
-18.33
-20.39
-21.26
-21.52
-22.25
-24.52
-29.08
-35.87
-43.80
-50.89
-54.71
-53.16
-45.24
-31.49
-13.89
4.71
21.46
34.27
42.13
45.09
43.87
39.47
32.91
25.13
17.07
9.63
3.54
-0.82
-3.50
-4.96
-5.84
-6.69
-7.79
-9.11
-10.52
-11.97
-13.69
-16.15
-19.91
-25.29
-32.10
-39.46
-45.88
-49.48
-48.54
-42.03
-30.03
-13.91
3.99
20.97
34.73
43.85
48.06
48.00
44.79
39.60
33.37
26.77
20.27
14.15
8.63
3.81
-0.33
-3.91
-7.03
-9.75
-12.01
-13.71
-14.84
-15.58
-16.43
-18.20
-21.70
-27.29
-34.49
-41.75
-46.80
-47.34
-41.89
-30.42
-14.48
3.37
20.35
34.29
44.06
49.47
50.95
49.13
44.71
38.42
31.12
23.79
17.32
12.28
8.69
6.09
3.77
1.14
-2.00
-5.37
-8.43
-10.67
-11.93
-12.57
-13.43
-15.54
-19.66
-25.91
-33.46
-40.59
-45.11
-44.90
-38.69
-26.53
-9.81
9.10
27.48
43.01
54.18
60.47
62.26
60.51
56.49
51.47
46.46
42.03
38.16
34.42
30.37
26.13
22.65
21.55
24.49
32.37
44.92
60.87
78.67
97.15
115.88
134.91
154.36
174.25
194.73
216.43
240.30
266.87
295.15
322.10
343.25
354.33
353.15
340.64
320.40
297.08
274.40
254.07
235.85
218.48
200.78
182.23
162.89
142.90
122.22
100.64
78.09
54.98
32.29
11.32
-6.71
-21.10
-31.81
-39.40
-44.72
-48.57
-51.40
-53.38
-54.44
-54.55
-53.91
-52.91
-52.06
-51.75
-52.18
-53.34
-55.17
-57.68
-61.08
-65.69
-71.82
-79.56
-88.73
-99.01
-110.04
-121.66
-133.98
-147.26
-161.82
-177.97
-196.09
-216.61
-239.84
-265.44
-291.92
-316.65
-336.46
-348.75
-352.41
-347.96
-336.87
-320.34
-298.56
-270.88
-236.92
-197.72
-156.23
-116.56
-82.60
-56.58
-38.69
-27.55
-21.29
-18.46
-18.30
-20.42
-24.39
-29.43
-34.56
-38.94
-42.18
-44.34
-45.83
-47.11
-48.45
-49.88
-51.30
-52.71
-54.44
-57.12
-61.40
-67.52
-74.80
-81.57
-85.59
-84.78
-78.07
-65.83
-49.86
-32.69
-16.83
-4.10
4.57
8.96
9.26
5.82
-0.95
-10.45
-21.85
-34.21
-46.62
-58.49
-69.64
-80.20
-90.36
-100.12
-109.16
-117.03
-123.40
-128.47
-133.07
-138.41
-145.56
-154.82
-165.33
-175.13
-181.74
-182.99
-177.77
-166.25
-149.80
-130.44
-110.26
-91.09
-74.23
-60.46
-49.95
-42.29
-36.40
-30.81
-23.80
-13.82
0.03
17.99
39.75
64.84
92.61
121.86
150.41
174.93
191.40
196.27
187.63
166.01
134.12
95.98
55.69
16.65
-18.61
-48.06
-69.95
-82.88
-86.33
-81.11
-69.35
-54.00
-38.03
-23.76
-12.58
-4.97
-0.74
0.48
-0.89
-4.50
-10.03
-17.01
-24.66
-31.91
-37.46
-40.17
-39.33
-34.90
-27.47
-18.09
-8.08
1.12
8.07
11.57
11.05
7.13
1.81
-1.81
-0.48
8.08
24.24
46.27
70.87
94.38
113.85
127.63
135.34
137.39
134.53
127.59
117.46
105.19
92.14
79.69
69.03
60.61
54.15
48.86
43.80
38.28
31.89
24.59
16.47
7.60
-2.17
-12.95
-24.40
-35.33
-43.84
-47.95
-45.82
-36.25
-19.11
4.33
31.29
58.34
82.15
99.94
109.48
110.07
103.16
92.34
82.20
76.52
77.57
85.43
97.72
107.55
107.39
93.41
68.23
39.02
12.82
-4.00
-9.52
-3.44
12.56
35.17
60.52
83.62
99.20
103.26
93.15
75.23
63.86
72.17
102.92
147.19
190.34
225.31
246.26
250.68
238.63
211.76
171.51
119.48
56.15
-10.10
-67.84
-106.76
-118.24
-105.49
-77.87
-44.25
-14.53
3.61
7.34
-2.02
-21.01
-45.44
-71.63
-96.61
-119.33
-140.74
-161.69
-181.02
-196.15
-198.79
-183.70
-152.02
-111.26
-71.18
-38.92
-16.53
-2.95
6.63
15.11
22.50
27.44
28.78
26.31
20.75
13.27
5.72
0.02
-3.64
-8.04
-17.88
-37.17
-66.50
-101.91
-135.77
-159.66
-167.88
-160.14
-141.62
-120.10
-102.43
-91.93
-87.92
-86.78
-83.96
-75.73
-60.79
-40.67
-18.83
1.03
16.87
29.44
42.07
59.14
83.61
115.06
149.53
181.04
204.22
216.63
219.92
218.81
219.03
224.69
236.55
251.70
264.59
268.78
258.48
230.22
183.96
123.99
58.76
-0.17
-40.83
-54.41
-38.86
-0.47
47.15
87.21
105.32
94.63
57.97
6.23
-46.51
-88.74
-115.64
-129.89
-139.33
-152.76
-175.96
-209.73
-250.55
-292.81
-331.15
-361.75
-382.34
-391.57
-388.54
-372.84
-345.35
-308.79
-267.62
-226.99
-191.29
-162.69
-140.34
-120.88
-100.06
-74.86
-44.85
-12.30
19.05
45.67
65.50
78.41
85.49
88.06
86.70
81.38
72.01
59.44
46.02
35.22
30.60
34.38
46.46
64.46
84.67
103.43
118.30
128.40
134.01
135.69
133.64
127.56
117.22
103.07
86.57
69.92
55.27
43.91
35.74
29.33
22.54
13.39
0.81
-14.88
-31.94
-47.60
-58.96
-63.84
-61.72
-54.08
-43.97
-34.96
-29.74
-28.95
-30.82
-31.72
-27.69
-16.06
3.32
27.74
52.15
70.40
76.91
68.23
44.22
8.81
-30.30
-63.39
-81.45
-79.11
-56.91
-21.27
17.88
50.92
71.69
78.73
73.94
60.18
39.85
15.17
-10.69
-33.30
-48.31
-54.06
-53.35
-52.57
-58.38
-73.85
-96.88
-121.43
-141.05
-151.87
-153.42
-146.92
-133.19
-112.02
-83.54
-50.08
-16.54
11.13
28.87
36.71
38.76
40.75
46.87
57.59
69.54
77.89
79.11
73.05
63.02
54.21
51.30
56.72
70.20
89.53
111.87
134.80
157.07
178.63
200.05
222.02
244.68
267.20
287.57
303.21
311.79
312.13
304.65
291.07
273.50
253.52
231.83
208.56
183.99
158.99
135.13
114.12
97.34
85.61
79.22
78.19
82.32
90.99
102.91
115.89
126.98
133.02
131.34
120.46
100.44
72.86
40.41
6.32
-26.29
-54.95
-78.13
-95.34
-106.85
-113.49
-116.34
-116.46
-114.80
-112.06
-108.79
-105.37
-102.20
-99.78
-98.74
-99.76
-103.24
-108.96
-115.70
-121.27
-122.92
-118.17
-105.62
-85.43
-59.36
-30.06
-0.32
27.67
52.60
73.90
91.33
104.74
113.97
119.03
120.25
118.31
114.02
108.00
100.47
91.25
80.02
66.76
51.97
36.70
22.20
9.42
-1.36
-10.75
-20.08
-31.00
-44.92
-62.48
-83.05
-104.52
-123.69
-136.90
-141.20
-135.29
-119.92
-97.72
-72.25
-46.97
-24.38
-5.72
8.76
19.38
26.49
30.38
31.25
29.40
25.37
19.87
13.58
7.02
0.45
-6.05
-12.52
-18.96
-25.39
-32.00
-39.31
-48.10
-59.23
-73.21
-89.97
-108.50
-126.96
-142.82
-153.26
-155.85
-149.19
-133.46
-110.62
-83.93
-57.15
-33.49
-14.87
-1.75
6.57
11.22
13.24
13.24
11.55
8.44
4.32
-0.27
-4.75
-8.72
-11.97
-14.40
-15.83
-15.88
-14.06
-10.04
-3.95
3.37
10.46
15.68
17.73
16.28
12.22
7.53
4.74
6.13
12.97
25.12
41.12
58.72
75.71
90.46
102.29
111.22
117.57
121.64
123.52
123.28
121.10
117.25
111.89
104.85
95.55
83.26
67.54
48.69
27.89
6.96
-12.05
-27.49
-38.46
-45.01
-48.17
-49.77
-52.00
-56.73
-64.80
-75.42
-86.27
-94.16
-96.15
-90.61
-77.70
-59.05
-37.05
-14.11
7.81
27.12
42.51
52.86
57.58
56.91
51.99
44.64
36.65
29.19
22.45
16.00
9.23
1.93
-5.46
-12.07
-17.03
-19.98
-21.31
-22.34
-25.01
-31.49
-43.49
-61.47
-84.09
-107.95
-128.21
-139.79
-138.92
-124.48
-98.46
-65.38
-30.80
0.26
24.62
41.27
50.95
55.25
55.87
54.09
50.79
46.74
42.77
39.83
38.72
39.72
42.38
45.59
47.96
48.33
46.12
41.31
34.24
25.01
13.30
-1.56
-20.23
-42.82
-68.73
-96.61
-124.76
-151.31
-174.35
-191.91
-201.80
-201.90
-190.45
-166.78
-131.64
-87.43
-37.84
12.62
59.31
98.01
125.41
139.46
139.74
127.63
106.25
79.89
53.18
30.07
13.03
2.71
-1.79
-2.24
-0.63
1.41
2.83
3.11
2.11
-0.10
-3.44
-7.91
-13.82
-21.78
-32.57
-46.64
-63.56
-81.65
-98.09
-109.64
-113.64
-108.97
-96.42
-78.37
-57.88
-37.67
-19.51
-4.10
8.51
18.38
25.37
29.14
29.52
26.83
21.99
16.39
11.41
7.94
6.19
5.69
5.70
5.66
5.45
5.47
6.30
8.25
11.10
14.05
15.97
15.72
12.48
5.89
-3.88
-16.04
-29.11
-40.92
-48.91
-50.64
-44.58
-30.68
-10.55
12.97
36.73
58.03
75.26
87.84
95.92
99.85
99.89
96.22
89.10
79.10
67.22
54.79
43.16
33.42
26.11
21.18
18.09
16.11
14.58
13.08
11.34
9.14
6.01
1.30
-5.81
-15.95
-29.38
-45.82
-64.43
-83.86
-102.30
-117.57
-127.33
-129.55
-122.93
-107.43
-84.41
-56.37
-26.41
2.47
27.87
48.23
62.80
71.55
74.94
73.88
69.64
63.63
57.18
51.21
46.10
41.59
37.06
31.85
25.56
18.31
10.62
3.17
-3.50
-9.30
-14.69
-20.53
-27.85
-37.55
-49.90
-64.27
-78.92
-91.17
-98.08
-97.35
-88.19
-71.76
-50.85
-28.96
-9.24
6.38
17.23
23.63
26.23
25.62
22.26
16.68
9.75
2.62
-3.55
-7.98
-10.51
-11.69
-12.37
-13.28
-14.69
-16.34
-17.69
-18.34
-18.31
-18.20
-18.93
-21.48
-26.53
-34.24
-44.05
-54.68
-64.22
-70.35
-70.95
-64.64
-51.37
-32.54
-10.73
11.05
30.13
44.77
54.29
58.87
59.13
55.82
49.70
41.59
32.47
23.38
15.19
8.36
2.80
-2.04
-6.89
-12.23
-18.01
-23.70
-28.53
-31.85
-33.50
-33.89
-33.95
-34.82
-37.51
-42.58
-49.76
-57.87
-64.89
-68.40
-66.24
-57.22
-41.62
-21.12
1.66
24.00
43.66
59.37
70.63
77.49
80.20
79.10
74.70
67.75
59.28
50.38
41.91
34.26
27.36
20.82
14.29
7.77
1.66
-3.41
-6.88
-8.68
-9.32
-9.85
-11.51
-15.41
-22.09
-31.31
-41.90
-51.87
-58.80
-60.43
-55.35
-43.49
-26.25
-6.00
14.57
33.17
48.36
59.54
66.65
69.89
69.57
66.17
60.42
53.32
45.93
39.05
33.04
27.73
22.69
17.56
12.30
7.27
2.96
-0.26
-2.49
-4.30
-6.66
-10.53
-16.63
-25.08
-35.18
-45.44
-53.78
-57.97
-56.27
-48.06
-34.06
-16.27
2.67
20.24
34.60
44.84
50.86
53.05
51.99
48.32
42.80
36.23
29.52
23.38
18.24
14.12
10.77
7.85
5.20
2.90
1.20
0.29
0.00
-0.27
-1.52
-4.80
-10.87
-19.65
-30.08
-40.14
-47.27
-49.12
-44.28
-32.83
-16.38
2.34
20.31
35.00
44.85
49.36
48.96
44.60
37.48
28.89
20.01
11.80
4.77
-0.98
-5.72
-9.85
-13.68
-17.25
-20.39
-22.90
-24.66
-25.83
-26.81
-28.23
-30.87
-35.35
-41.80
-49.49
-56.63
-60.77
-59.50
-51.44
-36.83
-17.60
3.27
22.74
38.60
49.73
56.08
58.15
56.66
52.33
45.93
38.33
30.46
23.14
16.88
11.82
7.75
4.24
0.92
-2.44
-5.84
-9.16
-12.28
-15.32
-18.73
-23.21
-29.47
-37.67
-47.10
-56.07
-62.26
-63.47
-58.45
-47.43
-32.07
-14.99
1.14
14.27
23.33
28.22
29.40
27.53
23.32
17.40
10.42
3.05
-4.11
-10.65
-16.48
-21.78
-26.84
-31.91
-37.00
-41.90
-46.32
-50.06
-53.28
-56.48
-60.39
-65.64
-72.35
-79.85
-86.66
-90.80
-90.37
-84.28
-72.73
-57.10
-39.49
-21.99
-5.97
8.04
20.06
30.02
37.45
41.53
41.57
37.61
30.64
22.40
14.59
8.21
3.18
-1.38
-6.57
-12.85
-19.72
-25.87
-29.82
-30.74
-29.03
-26.24
-24.53
-25.70
-30.27
-37.12
-43.57
-45.96
-40.44
-23.70
6.10
48.37
99.28
151.82
196.97
226.12
233.81
219.62
188.24
147.60
106.09
70.03
42.57
24.14
13.68
9.81
11.10
15.88
21.84
26.22
26.59
21.64
11.71
-1.59
-16.11
-30.13
-42.76
-53.82
-63.11
-69.95
-73.05
-70.97
-62.86
-49.05
-31.28
-12.26
4.98
17.82
24.69
25.27
20.57
12.61
3.87
-3.47
-8.09
-9.92
-9.89
-9.46
-9.95
-12.03
-15.62
-20.10
-24.68
-28.66
-31.59
-33.23
-33.56
-32.73
-31.07
-29.00
-26.72
-23.98
-19.91
-13.15
-2.35
13.25
33.34
56.46
80.29
102.37
120.68
134.08
142.29
145.61
144.60
139.83
131.81
121.10
108.36
94.41
80.12
66.24
53.24
41.30
30.23
19.77
9.74
0.21
-8.45
-15.72
-21.19
-24.86
-27.17
-28.97
-31.08
-33.88
-36.99
-39.34
-39.49
-36.30
-29.38
-19.35
-7.63
4.04
14.11
21.58
26.07
27.66
26.73
23.82
19.69
15.25
11.44
8.90
7.82
7.84
8.22
8.08
6.65
3.36
-2.18
-10.12
-20.37
-32.55
-46.04
-60.18
-74.52
-88.93
-103.33
-117.34
-129.90
-139.39
-144.14
-143.34
-137.55
-128.77
-119.75
-112.93
-109.59
-109.56
-111.47
-113.50
-114.06
-112.19
-107.63
-100.70
-92.20
-83.33
-75.56
-70.37
-68.80
-70.76
-74.64
-77.43
-75.51
-65.91
-47.49
-21.43
9.22
40.62
69.60
94.50
115.35
133.26
149.60
165.25
180.38
194.51
206.86
216.54
222.78
225.01
222.89
216.41
205.82
191.66
174.90
156.80
138.64
121.24
104.41
86.87
66.77
42.69
14.70
-15.16
-43.40
-66.27
-80.99
-86.51
-83.43
-73.52
-59.23
-43.46
-29.42
-20.31
-18.47
-24.45
-36.48
-50.78
-63.03
-70.00
-70.74
-66.61
-60.28
-54.15
-49.18
-44.63
-38.69
-29.44
-15.77
2.20
23.06
44.25
62.49
74.42
77.49
70.90
55.97
35.84
14.54
-4.20
-17.82
-25.17
-26.35
-22.41
-15.32
-7.97
-3.78
-5.82
-15.70
-32.87
-54.64
-76.92
-95.17
-105.16
-103.51
-88.33
-60.02
-21.99
19.46
56.42
81.82
91.76
86.70
70.81
49.83
28.85
10.84
-3.08
-12.66
-17.46
-16.71
-9.92
2.20
17.39
32.37
44.05
50.63
52.06
49.57
44.62
37.95
29.20
17.29
1.36
-18.34
-40.12
-61.22
-78.66
-90.19
-94.90
-93.42
-87.69
-80.36
-74.34
-72.20
-75.55
-84.40
-96.67
-108.08
-112.76
-104.85
-80.43
-39.39
13.79
70.84
122.03
159.00
177.05
176.07
159.71
133.65
103.74
74.85
50.55
33.26
24.37
24.09
31.16
42.79
55.21
64.73
68.79
66.75
59.71
49.85
39.35
29.48
20.31
11.06
0.84
-10.69
-22.97
-35.01
-46.01
-55.90
-65.40
-75.40
-86.20
-96.96
-105.89
-110.86
-110.39
-104.24
-93.58
-80.58
-67.64
-56.69
-48.63
-43.21
-39.30
-35.51
-30.68
-24.20
-16.06
-6.53
4.10
15.56
27.43
38.85
48.62
55.41
58.39
57.43
53.13
46.46
38.30
29.19
19.40
9.20
-0.98
-10.50
-18.62
-24.70
-28.43
-29.84
-29.40
-27.94
-26.57
-26.46
-28.53
-33.15
-39.80
-46.99
-52.55
-54.21
-50.50
-41.37
-28.51
-14.82
-3.33
4.06
7.58
9.84
15.07
27.66
50.52
83.92
125.02
168.30
206.64
232.88
241.36
229.09
196.24
146.12
84.70
19.70
-40.74
-89.60
-122.40
-137.99
-138.31
-127.72
-111.44
-93.78
-77.06
-61.55
-46.35
-30.44
-13.72
3.38
19.37
32.41
41.00
44.75
44.60
42.37
39.94
38.56
39.14
41.25
43.48
44.45
43.76
42.27
41.53
43.10
47.85
56.60
68.46
80.92
90.64
94.70
91.53
81.21
65.43
41.25
10.59
-21.05
-47.46
-65.02
-73.40
-73.94
-68.47
-58.86
-47.53
-36.40
-27.75
-23.62
-24.80
-30.36
-38.04
-45.63
-51.37
-55.85
-60.20
-66.60
-77.47
-93.95
-114.66
-135.60
-151.31
-156.11
-146.14
-120.15
-80.67
-33.55
13.61
53.59
81.44
92.84
87.40
69.18
46.02
26.91
19.13
26.13
46.90
76.72
109.02
137.91
159.17
170.81
172.76
166.33
153.58
137.04
119.23
102.38
88.13
76.74
66.68
55.04
38.56
15.15
-14.87
-48.47
-80.86
-107.05
-123.90
-131.24
-131.55
-128.65
-126.03
-125.67
-127.93
-132.01
-136.62
-140.47
-142.27
-140.62
-134.02
-121.34
-102.33
-78.17
-51.29
-24.80
-1.54
16.63
29.25
37.02
41.25
43.24
43.80
43.17
41.24
37.94
33.42
28.25
23.20
18.97
15.98
14.28
13.58
13.42
13.24
12.54
10.74
7.30
1.78
-5.78
-14.57
-22.71
-27.59
-26.53
-17.77
-1.27
21.10
45.98
69.65
89.01
102.25
109.02
110.04
106.52
99.73
90.72
80.26
68.94
57.18
45.33
33.68
22.50
12.04
2.52
-5.89
-13.08
-19.06
-24.01
-28.38
-33.02
-39.06
-47.55
-58.91
-72.33
-85.53
-95.18
-97.93
-91.72
-76.70
-55.35
-31.68
-9.91
6.81
17.09
21.17
20.34
16.15
9.87
2.41
-5.55
-13.46
-20.76
-26.99
-31.90
-35.43
-37.78
-39.27
-40.25
-41.03
-41.90
-43.13
-45.05
-48.17
-53.06
-60.17
-69.34
-79.33
-87.69
-91.20
-86.90
-73.29
-51.17
-23.52
5.31
31.04
50.68
63.08
68.71
68.95
65.36
59.18
51.28
42.32
32.86
23.40
14.35
5.96
-1.70
-8.69
-15.17
-21.22
-26.88
-32.12
-36.97
-41.71
-47.00
-53.81
-62.90
-74.21
-86.28
-96.20
-100.34
-95.61
-80.78
-57.16
-28.38
0.88
26.37
45.45
57.44
63.15
64.04
61.47
56.49
49.89
42.49
35.14
28.52
22.97
18.30
14.06
9.79
5.29
0.75
-3.46
-7.02
-9.94
-12.66
-16.00
-20.95
-28.17
-37.43
-47.21
-54.77
-56.83
-50.75
-35.68
-13.13
13.35
39.35
61.06
76.23
84.38
86.34
83.41
76.81
67.61
56.81
45.55
35.07
26.36
19.86
15.28
11.81
8.58
5.05
1.17
-2.76
-6.47
-10.15
-14.58
-20.92
-30.22
-42.68
-57.26
-71.57
-82.39
-86.58
-82.17
-69.05
-49.04
-25.37
-1.63
19.16
35.22
46.02
51.95
53.82
52.53
48.98
44.06
38.72
33.80
29.92
27.25
25.52
24.14
22.43
19.96
16.60
12.52
7.91
2.76
-3.31
-10.91
-20.27
-30.81
-40.78
-47.55
-48.48
-41.85
-27.66
-7.64
15.39
38.49
59.36
76.66
89.71
98.14
101.65
100.18
94.17
84.76
73.58
62.28
51.99
43.15
35.54
28.74
22.49
16.83
12.06
8.34
5.45
2.61
-1.22
-6.90
-14.46
-22.61
-28.91
-30.29
-24.15
-9.32
13.33
41.12
70.34
97.24
118.94
133.72
140.93
140.61
133.15
119.11
99.29
74.74
46.64
16.09
-16.03
-49.14
-82.44
-114.26
-141.46
-159.59
-164.03
-152.04
-124.52
-86.64
-46.31
-11.32
13.70
28.84
38.25
47.65
61.63
82.25
109.29
141.19
175.70
209.53
237.72
253.84
251.73
228.01
184.16
126.20
62.16
-1.63
-63.05
-123.73
-185.99
-249.17
-307.70
-352.47
-374.75
-370.30
-341.51
-296.45
-245.64
-198.45
-160.68
-134.07
-117.36
-107.75
-101.93
-96.51
-88.13
-74.02
-52.41
-22.96
13.19
54.20
98.33
144.70
193.21
243.41
293.06
337.24
368.97
381.33
370.23
336.50
285.76
226.31
165.85
108.94
56.14
5.06
-47.45
-103.15
-161.18
-217.86
-267.54
-304.03
-322.31
-320.01
-298.20
-261.15
-214.76
-165.05
-116.70
-72.53
-33.77
-0.61
27.29
50.55
69.89
85.93
98.91
108.68
114.86
117.27
116.05
111.64
104.51
94.92
82.84
67.97
49.89
28.03
1.88
-28.73
-62.86
-97.93
-129.78
-153.48
-164.98
-162.54
-147.42
-123.30
-94.83
-66.04
-39.48
-16.42
2.15
14.61
18.51
11.35
-8.17
-39.10
-77.94
-119.49
-158.20
-189.60
-211.12
-222.07
-223.10
-215.41
-200.37
-179.47
-154.55
-127.81
-101.58
-77.72
-56.98
-38.79
-21.43
-2.77
18.87
43.98
71.51
99.12
123.74
142.53
153.69
157.11
154.49
148.81
143.33
140.57
141.46
145.21
149.69
152.13
149.87
141.13
125.88
106.36
87.03
73.38
69.73
76.80
90.48
102.61
104.00
88.33
55.02
9.65
-38.17
-78.51
-104.45
-113.54
-107.43
-90.02
-65.60
-37.73
-9.08
18.10
41.48
58.47
66.64
64.60
52.79
33.94
12.66
-5.79
-17.12
-19.33
-13.40
-2.98
6.55
9.33
0.60
-21.99
-57.20
-99.73
-140.94
-170.97
-181.90
-170.82
-141.38
-102.72
-66.25
-41.61
-33.57
-41.29
-59.66
-81.65
-100.59
-111.49
-111.36
-99.09
-75.17
-41.37
-0.06
46.49
96.47
148.31
199.55
246.06
282.13
301.78
300.73
277.94
235.99
180.37
118.28
57.59
6.19
-29.04
-43.52
-36.64
-12.75
19.64
50.62
72.50
82.37
82.23
76.71
69.85
62.80
53.66
39.33
18.00
-9.46
-39.72
-68.53
-92.39
-109.52
-119.39
-121.88
-116.65
-103.21
-81.68
-53.55
-21.59
10.71
40.25
65.10
84.78
99.98
111.73
120.50
125.63
125.51
118.59
104.51
84.80
62.33
39.81
18.35
-3.05
-26.17
-51.25
-75.44
-93.18
-99.11
-91.69
-75.41
-59.76
-55.24
-68.43
-98.87
-139.37
-179.33
-209.10
-223.22
-221.09
-205.47
-179.97
-147.19
-108.47
-64.83
-18.25
27.90
69.44
102.67
125.50
137.89
141.35
137.95
129.48
116.99
100.95
81.65
59.60
35.60
10.52
-14.82
-39.62
-62.40
-80.55
-90.59
-89.50
-76.75
-55.69
-33.22
-17.44
-14.15
-24.16
-42.91
-62.82
-76.92
-81.74
-78.00
-68.78
-56.84
-42.84
-25.37
-2.61
25.66
57.15
87.55
112.07
127.20
131.86
127.59
117.84
106.83
98.29
94.43
95.36
98.96
101.19
96.93
81.08
50.15
3.66
-54.71
-117.10
-172.87
-211.44
-225.76
-215.01
-185.40
-148.40
-116.95
-101.26
-105.60
-127.44
-158.95
-189.98
-211.43
-217.62
-207.04
-181.79
-145.97
-104.03
-59.63
-15.12
28.56
71.71
115.41
160.59
206.94
252.07
291.35
319.12
330.63
323.93
300.43
263.84
217.99
165.24
106.79
44.57
-16.58
-67.99
-99.07
-101.10
-71.30
-15.19
54.40
121.03
169.60
190.13
179.56
140.88
81.33
10.42
-61.15
-122.36
-163.03
-175.87
-158.73
-116.01
-58.05
1.62
50.43
80.43
90.04
83.49
68.49
53.61
46.02
49.94
65.93
90.74
117.92
139.44
148.12
140.11
116.72
84.19
51.55
27.08
15.01
14.01
18.00
18.74
9.05
-14.79
-52.16
-98.53
-146.90
-189.56
-219.83
-233.47
-229.41
-209.65
-178.25
-140.03
-99.33
-59.46
-22.79
8.93
34.40
53.07
65.49
73.26
78.25
81.57
82.84
80.49
72.94
59.73
42.09
22.38
2.80
-15.82
-34.42
-55.10
-79.86
-109.37
-142.36
-175.80
-205.59
-227.43
-237.70
-234.01
-215.52
-183.00
-138.55
-85.46
-27.85
29.33
80.65
120.71
145.34
152.89
145.20
127.47
106.95
90.70
83.47
86.48
97.62
112.81
127.71
139.16
145.76
147.63
145.64
140.64
133.03
122.84
110.21
95.68
80.18
64.43
48.27
30.19
7.71
-21.78
-59.91
-106.74
-160.93
-220.28
-282.10
-343.14
-399.04
-444.28
-472.93
-480.36
-465.05
-429.46
-379.43
-322.24
-264.37
-210.08
-161.14
-117.60
-78.88
-44.33
-13.25
15.42
43.10
71.18
100.20
129.35
156.54
179.00
194.35
201.43
200.60
193.43
182.04
168.27
153.13
136.85
119.14
99.91
79.76
60.23
43.51
31.81
26.62
28.15
35.29
45.96
57.84
69.00
78.24
85.03
89.25
90.81
89.52
85.19
77.84
67.93
56.45
44.80
34.47
26.62
21.72
19.37
18.49
17.70
15.80
12.16
6.81
0.27
-6.80
-13.79
-20.19
-25.41
-28.62
-28.74
-24.77
-16.26
-3.66
11.60
27.50
41.98
53.50
61.28
65.25
65.80
63.55
59.22
53.60
47.54
41.77
36.71
32.35
28.33
24.14
19.38
13.74
6.97
-1.16
-10.88
-22.07
-34.02
-45.14
-53.28
-56.14
-52.03
-40.41
-22.06
1.07
26.36
51.13
73.06
90.53
102.71
109.45
111.16
108.66
102.93
95.04
85.98
76.64
67.70
59.68
53.01
48.03
45.03
44.26
45.87
49.97
56.43
64.86
74.38
83.68
91.28
96.07
97.96
98.11
98.59
101.50
107.94
117.32
127.49
135.45
138.43
134.82
124.64
109.31
91.08
72.40
55.19
40.24
26.96
13.11
-4.97
-31.79
-71.38
-124.98
-189.28
-255.92
-313.09
-349.00
-356.07
-334.03
-290.59
-239.12
-193.70
-164.18
-153.18
-156.29
-165.18
-171.74
-171.39
-164.16
-153.48
-142.59
-131.77
-117.35
-93.21
-53.63
3.66
75.91
155.45
230.37
288.83
322.25
327.29
305.81
263.91
210.74
156.96
112.65
82.66
67.99
66.05
71.72
78.33
79.04
68.74
45.03
7.72
-46.05
-117.45
-204.40
-300.23
-395.23
-479.04
-542.69
-580.63
-592.27
-586.95
-575.28
-564.69
-556.39
-547.25
-532.64
-508.01
-469.54
-387.81
-252.49
-78.47
97.12
238.12
326.71
364.61
365.32
345.79
322.09
293.69
256.64
209.67
158.29
112.04
80.07
67.99
76.34
102.67
136.38
167.54
190.80
207.98
224.04
242.72
264.34
286.10
303.92
311.64
306.85
283.69
243.96
195.06
146.11
103.92
71.33
48.14
30.77
15.42
-0.72
-18.63
-37.63
-56.37
-73.60
-88.53
-101.20
-113.11
-125.80
-137.55
-145.05
-144.75
-134.71
-116.40
-94.61
-75.49
-63.62
-59.29
-58.12
-53.01
-37.96
-10.97
24.79
63.04
97.54
124.63
143.79
156.18
163.00
164.35
160.22
151.31
139.91
129.51
123.44
123.26
127.81
133.79
134.51
126.35
110.57
92.59
78.28
70.74
69.95
72.70
75.08
73.71
66.58
52.44
30.98
2.55
-31.35
-67.65
-102.25
-131.18
-152.52
-167.32
-179.98
-196.72
-222.86
-259.90
-304.32
-348.85
-385.45
-408.43
-415.93
-409.64
-392.96
-368.98
-339.32
-304.39
-264.64
-221.54
-177.86
-136.81
-100.83
-70.59
-45.21
-22.80
-1.54
19.62
40.97
62.61
85.13
109.74
137.45
167.89
198.41
224.29
240.21
242.48
230.70
208.10
180.15
152.17
127.22
105.46
84.94
63.46
40.18
16.11
-6.34
-24.60
-36.80
-42.14
-40.55
-32.31
-17.89
1.98
25.86
51.38
75.47
95.07
107.94
113.32
112.00
105.87
97.19
87.82
78.88
70.78
63.42
56.56
49.94
43.42
36.92
30.52
24.37
18.76
13.98
10.22
7.41
5.20
2.93
-0.14
-4.70
-11.06
-19.02
-27.63
-35.26
-39.88
-39.63
-33.41
-21.43
-5.21
12.82
29.99
44.15
54.05
59.36
60.40
57.86
52.55
45.34
37.17
28.96
21.51
15.27
10.39
6.73
4.02
1.99
0.45
-0.76
-1.82
-3.03
-4.73
-7.41
-11.47
-17.02
-23.56
-29.82
-33.79
-33.29
-26.62
-13.36
5.34
26.97
48.45
66.97
80.80
89.44
93.49
94.15
92.73
90.36
87.83
85.61
84.00
83.16
83.28
84.64
87.58
92.39
99.16
107.65
117.28
127.20
136.56
144.64
151.18
156.37
160.90
165.96
173.03
183.51
198.16
216.45
236.31
254.47
267.39
272.47
269.00
258.24
242.78
225.37
207.99
191.33
175.11
158.62
141.33
123.10
104.03
84.22
63.60
41.92
18.86
-5.79
-31.96
-59.28
-87.09
-114.73
-141.85
-168.54
-195.30
-222.51
-249.74
-275.54
-297.57
-313.51
-321.81
-322.25
-315.58
-302.80
-284.59
-261.35
-233.75
-203.41
-172.69
-143.82
-117.52
-92.25
-64.76
-31.87
7.35
50.36
91.64
124.75
144.92
151.02
145.73
134.15
121.49
111.28
104.39
99.63
94.83
88.00
77.82
63.69
45.89
25.77
5.90
-10.40
-20.26
-22.86
-20.34
-17.29
-18.90
-28.73
-47.39
-72.90
-102.43
-134.11
-167.92
-204.98
-246.07
-290.34
-335.14
-377.08
-413.26
-442.26
-464.18
-480.40
-492.84
-503.55
-514.21
-525.64
-537.05
-545.71
-547.24
-536.83
-511.05
-469.48
-415.35
-354.71
-294.40
-239.76
-193.10
-153.68
-118.93
-86.30
-54.63
-24.33
3.36
27.56
48.43
66.89
83.75
98.79
110.63
117.58
119.04
116.34
112.77
112.45
118.90
134.13
158.81
193.00
236.57
288.77
347.18
406.76
460.31
500.02
519.68
516.31
490.34
445.07
385.82
319.62
255.14
202.21
170.20
165.23
187.23
228.58
275.50
312.07
325.34
309.53
267.10
207.06
140.79
77.75
22.79
-24.02
-65.53
-104.88
-143.55
-180.89
-215.02
-244.02
-266.66
-282.39
-290.82
-291.48
-284.01
-268.56
-246.52
-220.84
-195.86
-176.57
-167.41
-170.78
-186.06
-209.24
-233.91
-252.98
-260.73
-254.35
-234.56
-205.19
-172.01
-141.41
-118.79
-107.43
-107.65
-116.76
-129.87
-141.38
-146.75
-143.66
-132.31
-114.66
-93.41
-71.04
-49.50
-30.28
-14.38
-2.24
6.70
14.19
22.96
36.11
56.05
83.47
116.67
151.66
183.09
205.90
216.95
216.10
206.16
191.78
177.49
165.92
156.79
147.17
132.86
110.26
78.30
39.28
-1.42
-36.87
-60.63
-68.58
-59.60
-35.04
2.49
49.85
102.99
156.17
201.79
231.78
240.48
227.55
199.04
165.57
138.44
125.21
127.50
141.33
159.91
176.77
187.78
191.33
187.41
176.36
158.34
133.50
102.27
65.36
23.53
-22.63
-72.41
-124.24
-175.08
-220.52
-255.89
-277.98
-286.25
-282.98
-271.94
-256.59
-238.56
-217.48
-192.14
-161.96
-127.99
-92.59
-58.13
-25.58
6.14
39.35
76.03
116.14
156.97
193.82
221.88
238.17
242.61
237.50
225.72
208.88
186.56
157.25
120.69
79.72
40.48
10.29
-5.64
-6.73
2.74
15.85
26.35
30.96
29.63
23.82
14.29
0.33
-18.99
-42.57
-65.99
-82.61
-86.94
-78.22
-61.93
-47.87
-45.74
-60.57
-90.55
-128.33
-164.69
-192.47
-208.60
-213.67
-209.83
-198.77
-180.78
-155.35
-122.16
-82.07
-37.34
8.60
51.62
87.70
113.80
128.71
133.60
131.76
127.61
125.10
126.43
131.35
137.52
141.28
138.75
126.64
102.93
67.73
24.07
-21.66
-60.62
-83.97
-86.15
-67.51
-34.71
1.66
31.33
48.39
53.24
51.60
51.49
59.75
79.84
111.30
150.60
192.47
230.94
260.27
275.72
274.31
255.37
220.59
173.58
119.05
61.97
6.75
-43.28
-86.15
-121.10
-148.13
-167.56
-179.89
-186.30
-189.23
-192.48
-200.24
-215.27
-237.02
-261.06
-280.39
-288.16
-280.54
-258.07
-224.98
-187.00
-148.88
-113.01
-79.53
-47.44
-15.65
16.51
49.29
82.65
116.14
148.79
178.99
204.70
223.72
234.08
234.29
223.77
203.43
176.31
147.55
123.37
109.15
107.47
117.17
133.98
152.31
167.14
175.01
173.94
163.14
143.33
117.74
92.40
74.98
71.70
84.08
107.19
131.00
144.22
138.91
113.44
72.55
24.91
-20.25
-55.65
-77.07
-83.06
-74.34
-53.51
-25.03
4.95
29.32
41.25
35.66
10.63
-31.80
-85.62
-142.01
-191.36
-225.68
-240.76
-236.94
-218.42
-191.51
-162.67
-137.32
-119.59
-112.73
-119.08
-139.34
-171.34
-209.37
-245.09
-269.96
-278.23
-268.98
-246.12
-216.33
-186.17
-159.68
-137.73
-118.89
-101.08
-82.92
-64.12
-45.01
-25.68
-5.28
18.16
47.47
85.43
133.55
190.62
252.08
310.46
357.33
385.96
393.52
381.96
356.94
325.60
294.21
266.62
244.03
225.64
209.46
192.98
173.72
150.01
122.10
92.90
67.70
52.34
50.34
60.77
77.93
93.37
99.63
93.56
77.83
59.79
48.42
50.91
70.28
104.72
148.64
194.54
235.05
264.46
279.74
280.67
269.41
249.53
224.94
199.10
174.72
153.53
136.31
122.70
111.18
99.38
84.83
65.91
42.55
16.20
-10.82
-36.38
-59.52
-80.85
-102.52
-127.67
-159.52
-200.14
-249.25
-303.51
-357.06
-402.86
-434.93
-449.88
-447.47
-429.79
-399.92
-360.76
-314.99
-265.56
-216.38
-172.11
-137.20
-114.56
-104.62
-105.46
-113.66
-125.36
-137.06
-145.95
-150.06
-148.39
-141.21
-130.23
-118.56
-109.97
-107.63
-112.73
-123.54
-135.46
-142.23
-137.98
-119.38
-86.94
-44.93
-0.00
40.82
71.96
90.33
95.61
90.08
78.11
65.28
57.17
57.63
67.47
83.99
101.87
115.07
119.01
112.00
95.28
71.96
45.27
17.37
-11.06
-40.16
-69.83
-98.76
-124.27
-142.85
-151.42
-148.74
-136.32
-118.27
-100.31
-88.02
-85.12
-92.47
-107.86
-126.67
-143.19
-152.01
-149.22
-133.09
-104.47
-66.58
-24.35
16.80
52.48
80.67
102.09
119.31
134.75
148.92
159.72
163.56
157.58
141.82
119.77
97.17
79.51
69.74
67.61
70.40
74.69
77.53
76.84
71.04
58.86
39.39
12.38
-21.52
-60.92
-104.24
-149.92
-196.32
-241.19
-281.44
-313.25
-332.98
-338.21
-328.62
-306.10
-274.12
-236.84
-198.20
-161.40
-128.56
-100.68
-77.63
-58.33
-41.06
-24.01
-5.68
14.80
37.59
62.38
88.73
116.35
145.37
176.41
210.60
249.05
292.09
338.24
383.75
422.99
450.10
461.17
456.01
438.45
414.93
391.89
373.28
359.43
347.64
334.09
315.84
292.07
263.98
233.84
203.86
175.51
149.48
125.96
104.94
86.22
69.06
51.70
31.42
5.21
-28.77
-69.84
-114.17
-155.63
-187.92
-207.06
-212.97
-209.36
-201.99
-196.03
-194.08
-195.50
-197.14
-194.91
-185.31
-166.35
-138.04
-102.49
-63.74
-27.24
1.20
17.03
18.53
7.46
-11.34
-31.64
-48.02
-57.47
-59.88
-57.37
-52.91
-49.17
-47.95
-50.29
-56.91
-68.27
-84.46
-104.77
-127.44
-149.79
-168.76
-181.50
-186.00
-181.52
-168.86
-150.41
-129.81
-111.40
-99.28
-96.49
-104.26
-121.66
-145.54
-171.04
-192.39
-204.15
-202.56
-186.48
-157.71
-120.20
-78.69
-37.16
2.27
39.46
75.53
111.63
147.82
182.52
212.79
235.33
247.59
248.78
239.99
223.70
202.83
179.82
156.32
133.34
111.68
92.16
75.52
62.00
51.23
42.38
34.76
28.38
24.09
23.18
26.71
34.76
46.21
58.88
70.14
77.56
79.63
76.11
68.12
57.80
47.70
40.06
36.22
36.43
40.05
45.91
52.61
58.60
62.02
60.59
51.80
33.55
5.06
-32.42
-75.56
-119.77
-160.47
-194.17
-218.89
-233.69
-237.90
-230.56
-210.65
-178.04
-134.47
-83.98
-32.20
15.00
53.06
79.64
94.58
99.25
95.70
86.11
72.56
57.04
41.38
27.13
15.19
5.67
-2.08
-9.17
-16.64
-25.02
-34.16
-43.38
-52.04
-59.88
-67.19
-74.51
-82.03
-89.16
-94.62
-96.93
-95.22
-89.66
-81.48
-72.33
-63.58
-55.76
-48.59
-41.40
-33.71
-25.42
-16.69
-7.61
2.03
12.72
24.93
38.83
54.06
69.75
84.77
97.93
108.25
115.13
118.33
117.99
114.35
107.62
97.86
85.22
70.24
54.21
39.18
27.58
21.46
21.77
27.98
38.34
50.39
61.72
70.49
75.63
76.83
74.31
68.65
60.63
50.99
40.47
29.64
18.96
8.77
-0.68
-9.22
-16.75
-23.33
-29.05
-34.11
-38.79
-43.49
-48.69
-54.89
-62.27
-70.38
-78.05
-83.44
-84.55
-79.95
-69.25
-53.41
-34.43
-14.85
2.96
17.25
27.19
32.74
34.48
33.41
30.76
27.78
25.62
25.19
26.91
30.76
36.29
42.78
49.47
55.80
61.51
66.57
71.05
74.83
77.41
77.91
75.47
69.78
61.69
53.26
47.36
46.58
52.15
63.31
77.42
90.94
100.58
104.44
102.23
95.06
84.66
72.71
60.44
48.45
36.85
25.37
13.59
1.06
-12.35
-26.27
-39.85
-51.81
-60.87
-66.19
-67.76
-66.57
-64.56
-63.96
-66.52
-72.65
-80.95
-88.47
-91.71
-88.02
-76.75
-59.61
-40.07
-22.11
-9.02
-2.49
-2.71
-8.69
-18.96
-31.90
-45.89
-59.32
-70.62
-78.58
-82.64
-83.20
-81.44
-78.99
-77.33
-77.38
-79.39
-83.16
-88.37
-94.68
-101.59
-108.05
-112.18
-111.44
-103.37
-86.58
-61.63
-31.23
0.27
28.02
47.95
57.65
56.77
46.80
30.53
11.46
-6.76
-20.81
-28.18
-27.65
-19.47
-5.26
12.45
30.92
47.90
61.91
72.23
78.48
80.22
76.84
67.79
53.14
34.07
13.04
-6.56
-21.22
-28.26
-26.60
-17.07
-2.11
14.97
30.87
43.25
51.14
55.06
56.60
57.74
60.06
64.23
70.00
76.36
82.14
86.33
88.26
87.46
83.48
75.91
64.51
49.63
32.21
13.79
-3.91
-19.35
-31.44
-39.59
-43.54
-43.28
-38.93
-30.93
-20.09
-7.65
4.95
16.36
25.68
32.49
36.72
38.30
36.91
31.94
22.79
9.34
-7.63
-26.35
-44.68
-61.02
-75.24
-89.18
-106.13
-129.44
-160.69
-198.25
-237.01
-269.64
-288.87
-289.81
-271.33
-235.80
-187.93
-133.27
-77.22
-24.60
20.59
55.54
79.28
93.02
99.90
103.74
107.54
112.41
117.43
120.69
120.58
116.82
110.59
104.02
99.26
97.46
98.13
98.89
95.96
85.36
64.49
33.52
-3.99
-41.86
-73.06
-92.07
-96.66
-88.72
-73.43
-57.34
-45.88
-41.15
-40.96
-39.36
-29.00
-4.37
35.21
84.40
132.96
169.06
183.28
171.82
137.36
87.65
32.59
-18.90
-60.73
-89.85
-105.45
-107.91
-98.32
-78.90
-53.50
-27.66
-7.45
2.54
1.07
-8.84
-20.85
-27.78
-24.56
-10.37
11.18
33.47
49.61
54.73
47.16
28.12
0.64
-31.41
-63.68
-91.44
-109.87
-115.19
-106.15
-85.10
-57.73
-31.09
-10.98
0.32
4.66
6.54
10.74
20.04
34.32
51.36
68.51
84.37
99.44
115.53
134.39
156.25
179.06
198.75
210.50
210.38
196.48
169.18
130.64
83.92
32.37
-20.60
-71.63
-117.82
-157.28
-189.48
-215.12
-235.05
-249.12
-255.45
-250.91
-232.15
-197.22
-146.79
-84.88
-18.80
41.60
85.51
103.59
91.01
50.01
-9.52
-72.23
-122.05
-147.26
-143.94
-116.18
-73.27
-25.69
18.17
53.32
77.81
91.50
95.30
90.96
81.12
69.23
58.92
52.71
51.14
52.51
53.32
49.36
37.29
16.24
-11.20
-39.31
-61.00
-70.65
-66.45
-51.28
-31.18
-12.29
2.17
13.31
25.45
43.43
69.77
103.41
140.50
176.52
208.38
235.29
258.14
278.05
295.01
307.36
312.29
307.07
290.41
263.09
227.64
187.61
146.26
105.76
66.91
29.37
-8.07
-47.15
-89.66
-136.59
-186.84
-236.37
-278.35
-304.56
-307.68
-283.66
-233.20
-162.11
-80.32
-0.14
65.93
107.37
117.59
95.35
45.41
-21.99
-93.07
-153.56
-192.30
-204.26
-191.92
-164.28
-133.81
-111.69
-103.49
-107.11
-113.83
-112.27
-93.39
-54.17
1.34
63.42
119.72
158.62
171.91
156.97
117.94
65.44
14.37
-20.15
-27.70
-6.11
37.79
90.69
137.71
167.26
174.19
160.37
133.03
101.90
76.51
64.05
67.90
87.16
117.07
150.50
180.14
200.58
209.43
207.22
196.11
178.29
154.99
126.32
92.18
53.53
13.17
-24.37
-54.03
-71.84
-76.41
-69.50
-55.70
-41.38
-33.27
-36.89
-54.88
-85.56
-122.24
-154.13
-169.63
-160.62
-126.49
-75.32
-21.42
19.84
37.46
27.74
-6.05
-56.45
-114.88
-173.39
-224.90
-263.13
-283.17
-283.18
-265.76
-237.73
-207.76
-182.91
-165.81
-154.16
-142.59
-125.70
-100.59
-67.87
-30.96
5.39
36.54
58.71
69.30
67.03
52.18
26.97
-4.34
-35.97
-61.95
-77.79
-81.91
-76.08
-64.71
-53.10
-45.64
-44.42
-49.03
-57.43
-67.23
-76.87
-86.06
-95.42
-105.44
-115.66
-124.26
-128.52
-125.97
-115.61
-98.62
-78.10
-57.95
-41.45
-30.34
-24.67
-23.62
-26.40
-32.93
-43.59
-58.56
-77.14
-97.56
-117.30
-133.73
-144.62
-148.43
-144.32
-132.15
-112.56
-86.92
-57.18
-25.38
6.81
38.61
70.18
102.09
134.58
166.90
197.25
223.50
244.14
258.99
268.99
275.28
278.16
276.58
268.78
253.84
232.96
209.87
189.69
176.91
173.45
177.78
185.44
190.74
188.56
175.86
152.27
119.97
82.76
45.02
10.58
-18.19
-40.68
-58.10
-73.10
-88.96
-108.62
-133.47
-162.48
-192.00
-216.60
-230.81
-230.87
-215.94
-188.09
-151.24
-109.74
-67.24
-26.45
10.67
42.42
67.41
84.90
95.25
99.96
101.22
101.05
100.62
99.97
98.37
94.98
89.45
82.34
74.82
68.21
63.42
60.46
58.39
55.67
50.69
42.30
30.32
15.60
-0.08
-14.44
-25.20
-30.70
-30.24
-24.42
-14.91
-4.12
5.51
12.14
14.90
13.88
9.92
4.03
-2.90
-10.37
-18.18
-26.27
-34.62
-43.11
-51.45
-59.12
-65.27
-68.86
-68.98
-65.36
-58.76
-51.15
-45.18
-43.34
-46.96
-55.66
-67.39
-79.00
-87.16
-89.13
-83.31
-69.53
-49.09
-24.73
-0.27
19.97
32.17
33.93
25.08
7.75
-14.04
-35.52
-52.39
-61.84
-63.22
-57.83
-48.41
-38.04
-29.29
-23.66
-21.53
-22.44
-25.61
-30.34
-36.25
-43.22
-51.00
-58.91
-65.64
-69.34
-68.15
-60.89
-47.54
-29.40
-8.81
11.42
28.63
40.81
46.82
46.44
40.40
30.10
17.40
4.23
-7.81
-17.68
-24.98
-29.85
-32.76
-34.26
-34.89
-34.90
-34.29
-32.80
-30.10
-26.14
-21.41
-16.88
-13.70
-12.59
-13.29
-14.48
-14.05
-9.92
-0.90
12.81
29.52
46.70
61.77
72.86
79.24
81.18
79.61
75.67
70.44
64.77
59.31
54.46
50.49
47.41
45.06
43.11
41.07
38.44
34.83
30.05
24.21
17.55
10.26
2.36
-6.28
-15.55
-24.82
-32.68
-37.24
-36.76
-30.41
-18.78
-3.83
11.68
24.98
33.97
37.60
35.81
29.27
19.13
6.79
-6.29
-18.82
-29.82
-38.88
-46.04
-51.69
-56.24
-60.00
-63.04
-65.34
-66.88
-67.79
-68.34
-68.93
-70.06
-72.18
-75.47
-79.58
-83.27
-84.37
-80.24
-68.64
-48.81
-22.05
8.49
38.73
65.02
85.24
99.09
107.69
112.61
115.28
116.65
117.37
118.05
119.36
121.77
125.24
129.02
131.84
132.45
130.09
124.83
117.32
108.27
97.98
86.18
72.35
56.38
39.04
22.23
8.74
1.73
3.99
17.30
41.87
75.98
115.85
156.04
190.28
212.76
219.49
209.06
182.66
143.22
94.57
40.71
-14.21
-65.76
-109.37
-141.05
-158.57
-162.40
-155.89
-144.27
-132.94
-125.86
-124.55
-128.19
-134.34
-139.85
-141.65
-137.35
-125.64
-106.81
-82.84
-57.14
-33.66
-15.74
-5.19
-1.83
-3.86
-8.62
-13.65
-17.31
-19.27
-20.27
-21.83
-25.54
-32.60
-43.34
-57.18
-72.73
-88.05
-101.04
-109.85
-113.33
-111.29
-104.73
-95.53
-85.72
-76.65
-68.27
-59.07
-46.81
-29.66
-7.21
19.12
46.41
71.27
90.89
103.64
109.27
108.47
102.45
92.43
79.54
64.68
48.68
32.31
16.37
1.72
-10.75
-20.24
-26.11
-28.17
-26.75
-22.78
-17.65
-12.98
-10.32
-10.79
-14.69
-21.23
-28.46
-33.53
-33.48
-26.30
-11.79
8.16
30.12
50.37
66.14
76.31
81.36
82.71
81.83
79.76
76.97
73.64
69.96
66.29
63.09
60.77
59.54
59.31
59.81
60.68
61.64
62.54
63.25
63.61
63.33
62.14
60.15
58.09
57.39
59.68
66.12
76.72
90.22
104.41
116.93
125.90
130.19
129.42
123.68
113.30
98.92
81.55
62.49
43.18
24.77
7.90
-7.31
-21.14
-33.85
-45.56
-56.15
-65.43
-73.27
-79.88
-85.79
-91.75
-98.30
-105.33
-111.78
-115.68
-114.79
-107.51
-93.64
-74.75
-53.69
-33.71
-17.36
-5.91
0.67
3.24
2.88
0.40
-3.66
-8.90
-14.82
-20.76
-25.99
-29.96
-32.37
-33.33
-33.18
-32.38
-31.35
-30.42
-29.91
-30.16
-31.64
-34.76
-39.59
-45.49
-51.00
-54.09
-52.77
-45.98
-34.00
-18.61
-2.42
11.94
22.60
28.86
31.02
30.00
26.83
22.36
17.25
12.00
7.11
2.97
-0.16
-2.30
-3.69
-4.65
-5.47
-6.30
-7.11
-7.99
-9.16
-11.15
-14.44
-19.14
-24.59
-29.35
-31.52
-29.46
-22.45
-11.11
2.81
16.94
29.13
37.95
42.95
44.46
43.25
40.17
36.01
31.37
26.75
22.58
19.19
16.83
15.56
15.23
15.47
15.82
15.92
15.63
15.02
14.31
13.61
12.81
11.69
10.32
9.43
10.49
15.39
25.69
41.79
62.55
85.41
107.20
125.20
137.98
145.84
150.52
154.61
160.61
170.16
183.37
198.61
212.68
221.57
221.63
210.75
189.16
159.31
125.06
90.18
57.23
26.92
-1.73
-30.89
-63.13
-100.40
-142.86
-187.68
-228.67
-257.31
-265.32
-247.97
-206.39
-147.75
-82.76
-21.84
28.05
64.46
88.08
100.27
101.22
89.98
65.89
30.37
-12.54
-57.25
-98.52
-133.25
-160.98
-183.20
-201.79
-217.87
-231.50
-242.18
-249.97
-256.15
-263.17
-273.66
-289.06
-308.52
-328.75
-345.00
-352.77
-349.55
-335.76
-314.38
-289.44
-264.14
-239.59
-214.70
-187.15
-154.81
-116.72
-73.28
-25.96
23.14
71.49
116.15
154.11
182.78
200.90
209.09
209.72
206.13
201.39
197.35
194.33
191.56
187.86
182.30
174.47
164.53
153.12
141.22
130.09
121.08
115.24
113.05
114.33
118.34
124.17
131.05
138.47
145.96
152.84
158.13
160.96
161.09
159.51
158.23
159.49
164.58
172.97
182.39
189.81
192.77
190.35
182.98
171.57
156.50
137.03
111.84
80.02
41.84
-1.16
-47.07
-94.43
-142.56
-190.86
-237.66
-279.44
-311.54
-329.87
-333.16
-324.07
-308.39
-292.41
-279.85
-270.17
-259.33
-242.52
-217.29
-185.15
-150.59
-118.39
-90.99
-67.33
-44.06
-17.76
12.91
46.81
81.12
112.79
139.23
157.93
165.55
157.73
130.49
82.87
19.36
-49.54
-109.36
-145.92
-150.09
-121.25
-67.89
-5.20
49.50
81.92
84.75
59.13
13.36
-40.47
-90.30
-127.14
-146.25
-146.71
-130.27
-100.23
-61.01
-17.92
23.05
56.38
78.45
88.63
89.24
84.44
78.33
73.23
68.89
63.09
53.07
37.48
17.71
-1.86
-14.89
-14.91
2.76
39.51
92.91
156.97
223.17
281.96
324.81
346.09
344.43
322.77
287.11
244.35
200.23
158.41
120.66
87.91
60.80
39.61
23.69
10.99
-1.69
-17.81
-40.16
-70.24
-108.10
-152.14
-199.14
-244.30
-281.82
-306.06
-313.02
-301.54
-273.89
-235.34
-193.05
-154.39
-125.42
-109.66
-107.24
-114.79
-125.92
-132.69
-127.85
-107.44
-72.70
-30.40
9.03
35.11
41.24
27.34
-0.15
-30.96
-54.87
-65.03
-59.00
-37.70
-3.28
42.33
97.35
158.88
221.79
278.69
321.53
344.14
344.14
323.52
287.51
242.41
193.54
144.16
95.47
47.31
-1.07
-50.38
-100.89
-151.84
-201.21
-245.41
-279.77
-299.65
-301.77
-284.91
-249.85
-199.07
-136.57
-68.38
-3.20
48.04
74.20
67.87
29.10
-32.94
-101.91
-159.40
-190.82
-189.61
-158.01
-104.76
-41.08
22.54
78.03
119.88
144.91
152.34
144.20
125.48
103.11
84.11
73.05
70.41
72.36
72.15
62.36
37.56
-3.41
-56.28
-111.89
-158.63
-186.18
-189.23
-169.55
-135.10
-96.65
-63.21
-38.62
-20.78
-3.87
18.21
48.74
87.16
130.09
173.39
213.83
249.50
279.25
301.70
314.87
316.58
305.33
281.17
246.09
203.54
157.42
111.03
66.39
24.01
-16.88
-57.58
-98.98
-140.42
-178.94
-209.44
-225.93
-223.24
-198.71
-153.03
-90.14
-16.70
58.79
126.95
178.60
206.24
205.68
177.54
127.78
66.69
6.43
-42.10
-71.96
-81.45
-73.80
-55.56
-34.28
-16.34
-5.29
-1.22
-1.32
-1.51
1.52
8.74
18.28
26.16
27.79
19.70
0.57
-28.44
-63.93
-100.65
-132.15
-151.88
-155.07
-140.91
-113.95
-83.62
-61.38
-56.57
-72.82
-106.56
-148.51
-187.22
-212.83
-219.57
-206.24
-174.96
-129.30
-72.75
-8.35
60.83
130.87
196.51
251.75
291.24
311.96
314.10
300.70
276.23
244.80
208.94
169.56
126.58
79.63
28.60
-25.92
-82.28
-137.19
-185.56
-221.25
-238.61
-234.07
-207.03
-159.92
-97.55
-26.75
43.94
104.83
146.35
161.14
146.12
103.71
41.45
-29.84
-98.61
-154.90
-191.87
-206.61
-200.42
-178.20
-147.30
-115.41
-88.65
-70.20
-60.42
-57.98
-61.32
-69.22
-80.62
-93.90
-106.61
-116.17
-121.15
-122.31
-122.55
-125.82
-135.14
-151.18
-171.89
-193.33
-211.15
-221.87
-223.48
-215.33
-197.73
-171.68
-138.80
-101.28
-61.73
-22.65
14.18
48.00
79.20
109.26
140.50
175.46
215.95
261.80
310.00
354.89
389.54
408.10
407.96
390.78
361.73
327.38
293.15
261.60
232.12
201.81
166.99
124.43
72.44
11.70
-54.10
-118.15
-171.32
-204.22
-209.87
-186.12
-137.07
-72.49
-5.54
50.52
85.59
94.84
79.26
44.57
-0.87
-48.44
-91.19
-124.86
-148.05
-161.59
-167.69
-169.02
-168.07
-166.50
-164.92
-162.93
-159.71
-154.67
-147.87
-139.98
-131.73
-123.24
-113.71
-101.68
-85.63
-64.76
-39.36
-10.81
18.79
47.15
72.15
92.19
106.26
114.03
115.84
112.53
105.31
95.55
84.64
73.92
64.50
57.04
51.68
48.06
45.53
43.47
41.38
38.91
35.68
31.20
25.11
17.48
9.16
1.85
-2.48
-2.24
2.99
12.28
23.60
34.60
43.30
48.56
50.13
48.41
44.16
38.25
31.50
24.64
18.19
12.48
7.60
3.47
-0.12
-3.34
-6.31
-9.03
-11.44
-13.59
-15.64
-17.94
-20.88
-24.66
-29.02
-33.17
-35.84
-35.62
-31.43
-22.94
-10.73
3.76
18.72
32.38
43.43
51.20
55.59
56.88
55.58
52.33
47.83
42.90
38.32
34.71
32.33
30.93
29.82
28.14
25.26
21.11
16.31
11.99
9.40
9.49
12.53
18.03
24.92
31.94
37.94
42.21
44.46
44.73
43.26
40.28
36.05
30.85
25.15
19.57
14.79
11.33
9.37
8.68
8.68
8.68
8.12
6.78
4.73
2.31
-0.06
-2.07
-3.63
-4.89
-6.21
-8.05
-10.86
-15.00
-20.56
-27.34
-34.66
-41.35
-45.93
-46.87
-43.11
-34.46
-21.78
-6.82
8.33
21.78
32.31
39.54
43.71
45.41
45.26
43.79
41.42
38.54
35.53
32.70
30.18
27.89
25.52
22.76
19.40
15.48
11.29
7.15
3.28
-0.38
-4.18
-8.56
-13.91
-20.24
-27.06
-33.35
-37.71
-38.78
-35.57
-27.87
-16.34
-2.39
12.15
25.52
36.39
44.05
48.46
50.04
49.54
47.81
45.61
43.53
41.80
40.34
38.83
36.97
34.54
31.67
28.71
26.12
24.34
23.50
23.47
23.85
24.14
23.85
22.74
20.91
18.95
17.91
18.99
23.26
31.19
42.31
55.22
67.89
78.35
85.26
88.34
88.20
85.96
82.63
78.75
74.40
69.43
63.97
58.67
54.70
53.45
55.90
62.14
71.02
80.28
86.93
88.00
81.19
65.49
41.44
11.09
-22.34
-54.90
-82.43
-101.11
-108.10
-102.09
-83.73
-55.76
-22.59
10.50
38.53
57.94
67.22
67.04
59.63
47.86
34.35
20.88
8.22
-3.55
-14.68
-25.35
-35.53
-45.00
-53.53
-61.02
-67.53
-73.15
-77.88
-81.55
-83.88
-84.74
-84.53
-84.26
-85.33
-88.95
-95.33
-103.31
-110.46
-113.85
-111.20
-101.89
-87.30
-70.45
-55.00
-44.12
-39.64
-41.74
-49.13
-59.59
-70.66
-80.21
-86.81
-89.79
-89.16
-85.31
-78.77
-70.07
-59.74
-48.40
-36.82
-25.86
-16.36
-8.92
-3.82
-0.98
0.17
0.68
2.12
6.30
14.80
28.36
46.43
67.13
87.70
105.25
117.53
123.47
123.17
117.62
108.03
95.34
79.92
61.60
40.08
15.47
-11.14
-37.56
-60.85
-77.99
-86.83
-86.71
-78.64
-64.93
-48.50
-32.28
-18.73
-9.87
-7.28
-12.11
-24.76
-44.34
-68.30
-92.53
-112.14
-122.82
-122.26
-110.97
-92.14
-70.46
-50.49
-35.35
-26.14
-22.23
-22.19
-24.56
-28.39
-33.13
-38.41
-43.75
-48.66
-52.79
-56.06
-58.59
-60.46
-61.46
-61.10
-58.87
-54.64
-49.13
-43.90
-40.96
-41.96
-47.26
-55.53
-63.94
-69.12
-68.29
-60.31
-45.84
-26.85
-5.72
15.57
35.65
53.61
68.60
79.71
86.21
87.85
85.15
79.24
71.50
63.07
54.59
46.13
37.47
28.42
19.03
9.72
1.19
-5.85
-11.03
-14.67
-17.77
-21.64
-27.32
-34.95
-43.45
-50.86
-55.02
-54.40
-48.67
-38.76
-26.40
-13.54
-1.82
7.74
14.65
18.81
20.37
19.69
17.31
13.99
10.58
7.79
6.10
5.58
6.01
6.93
7.90
8.51
8.55
7.96
6.75
5.01
2.70
-0.32
-4.36
-9.60
-15.85
-22.32
-27.63
-30.18
-28.71
-22.83
-13.19
-1.23
11.28
22.84
32.52
39.96
45.14
48.12
48.96
47.76
44.83
40.65
35.80
30.80
25.93
21.27
16.81
12.55
8.67
5.40
2.91
1.16
-0.16
-1.58
-3.79
-7.38
-12.63
-19.29
-26.39
-32.45
-35.67
-34.58
-28.48
-17.67
-3.47
12.18
27.16
39.59
48.16
52.31
52.18
48.60
42.75
35.82
28.66
21.56
14.39
6.92
-0.84
-8.42
-14.96
-19.50
-21.34
-20.29
-16.69
-11.37
-5.39
0.17
4.52
7.34
8.93
10.18
12.38
16.81
24.44
35.52
49.48
65.11
80.83
95.09
106.78
115.42
121.14
124.57
126.42
127.28
127.41
126.74
125.01
121.86
116.97
110.06
100.91
89.44
75.80
60.43
44.10
27.70
12.04
-2.46
-15.87
-28.74
-41.66
-54.84
-67.71
-78.88
-86.53
-89.09
-85.86
-77.35
-65.16
-51.36
-37.85
-25.91
-16.00
-8.07
-1.86
2.82
5.93
7.28
6.60
3.72
-1.30
-7.98
-15.40
-22.21
-26.86
-27.93
-24.47
-16.32
-4.31
9.76
23.43
33.93
38.87
36.88
28.13
14.42
-1.19
-15.21
-24.72
-28.23
-26.03
-19.85
-12.22
-5.53
-1.40
-0.40
-2.19
-5.89
-10.52
-15.28
-19.66
-23.47
-26.75
-29.60
-32.16
-34.42
-36.25
-37.40
-37.64
-36.84
-35.06
-32.52
-29.63
-26.91
-24.85
-23.83
-23.78
-24.04
-23.38
-20.29
-13.49
-2.41
12.43
29.54
46.85
62.27
74.14
81.54
84.29
82.86
78.09
70.98
62.48
53.30
43.87
34.36
24.92
15.76
7.25
-0.09
-5.91
-10.12
-13.17
-15.98
-19.91
-26.50
-37.11
-52.56
-72.65
-95.83
-119.14
-138.64
-150.25
-150.90
-139.49
-117.42
-88.24
-56.62
-26.95
-2.22
16.42
29.44
38.12
43.76
47.36
49.56
50.92
52.10
53.81
56.56
60.35
64.64
68.60
71.47
72.90
73.08
72.45
71.27
69.22
65.37
58.51
47.89
33.87
18.38
4.56
-4.03
-4.57
4.12
21.27
44.51
70.66
96.59
119.72
138.13
150.43
155.60
152.94
142.30
124.22
100.04
71.77
41.82
12.58
-13.91
-36.12
-53.24
-65.12
-72.36
-76.22
-78.55
-81.42
-86.55
-94.58
-104.40
-112.99
-115.98
-108.86
-88.65
-55.32
-12.46
33.28
73.65
100.74
108.83
95.55
62.58
15.39
-37.62
-86.72
-122.86
-139.84
-135.75
-113.29
-78.66
-39.66
-3.63
23.90
39.68
42.35
32.13
10.58
-19.33
-53.39
-86.77
-115.17
-135.93
-148.65
-155.09
-158.16
-160.62
-163.99
-168.21
-171.96
-173.27
-170.07
-160.45
-142.75
-115.95
-80.31
-38.13
6.04
46.24
76.78
94.22
98.51
92.72
81.54
69.29
58.67
50.56
44.89
41.53
40.76
43.08
48.62
56.70
65.89
74.29
80.09
81.78
78.26
68.83
53.27
31.93
5.86
-23.24
-53.24
-81.96
-107.53
-128.67
-144.80
-155.89
-162.25
-164.30
-162.62
-157.97
-151.29
-143.31
-134.16
-122.90
-107.55
-85.60
-54.90
-14.83
33.04
84.71
134.42
175.79
203.28
213.53
206.14
183.76
151.34
114.91
80.13
51.28
30.76
19.32
16.56
21.39
32.34
47.48
64.46
80.45
92.52
98.23
96.16
86.35
70.12
49.55
26.68
2.98
-20.71
-43.97
-66.17
-86.35
-103.22
-115.54
-122.44
-123.62
-119.31
-110.20
-97.39
-82.38
-66.98
-53.15
-42.58
-36.25
-34.12
-34.99
-36.70
-36.59
-32.13
-21.71
-5.10
16.27
39.73
62.18
80.97
94.55
102.53
105.36
103.75
98.31
89.50
77.77
63.69
48.04
31.60
15.08
-0.97
-16.08
-29.71
-41.29
-50.20
-56.06
-58.87
-59.21
-58.29
-57.58
-58.41
-61.27
-65.32
-68.34
-67.32
-59.51
-43.59
-20.36
7.36
35.61
60.50
79.39
91.29
96.71
97.00
93.65
87.96
80.90
73.22
65.49
58.06
51.02
44.20
37.31
30.16
22.81
15.52
8.63
2.33
-3.46
-9.21
-15.66
-23.61
-33.51
-45.05
-56.90
-66.79
-72.07
-70.57
-61.36
-45.34
-24.95
-3.53
15.74
30.60
40.10
44.44
44.55
41.59
36.63
30.59
24.24
18.21
12.92
8.53
4.89
1.74
-1.20
-3.98
-6.37
-8.04
-8.72
-8.44
-7.61
-7.04
-7.69
-10.46
-15.78
-23.18
-31.26
-37.78
-40.28
-36.84
-26.77
-10.97
8.31
28.13
45.67
58.90
66.91
69.80
68.32
63.55
56.54
48.20
39.32
30.51
22.19
14.64
7.91
1.88
-3.59
-8.59
-13.12
-17.04
-20.28
-22.97
-25.52
-28.63
-33.09
-39.45
-47.76
-57.23
-66.26
-72.65
-74.17
-69.18
-57.32
-39.68
-18.61
2.90
22.07
36.97
46.84
51.91
52.98
50.96
46.62
40.58
33.42
25.83
18.48
11.92
6.41
1.87
-1.95
-5.29
-8.21
-10.64
-12.48
-13.85
-15.18
-17.26
-20.96
-26.87
-34.94
-44.13
-52.50
-57.51
-56.83
-49.05
-34.37
-14.63
7.23
28.02
45.21
57.45
64.56
67.12
65.96
61.87
55.57
47.83
39.51
31.43
24.16
17.82
12.11
6.64
1.21
-3.99
-8.51
-11.94
-14.20
-15.74
-17.41
-20.23
-25.11
-32.50
-42.18
-53.01
-62.99
-69.54
-70.23
-63.52
-49.48
-29.89
-7.75
13.75
32.07
45.91
55.10
60.11
61.58
60.02
55.91
49.88
42.79
35.62
29.09
23.46
18.41
13.38
7.88
1.82
-4.44
-10.25
-15.11
-18.88
-22.01
-25.43
-30.27
-37.50
-47.49
-59.63
-72.25
-82.87
-88.79
-87.91
-79.50
-64.48
-45.16
-24.50
-5.23
10.84
23.01
31.39
36.39
38.37
37.49
34.04
28.61
22.32
16.51
12.31
10.25
10.05
10.88
11.83
12.37
12.56
12.93
13.96
15.74
17.77
19.10
18.62
15.51
9.56
1.37
-7.60
-15.26
-19.34
-18.00
-10.44
2.80
19.98
38.64
56.39
71.49
83.01
90.71
94.64
94.89
91.61
85.22
76.59
67.07
58.12
50.89
45.90
42.89
41.14
39.83
38.50
37.15
36.15
36.04
37.20
39.63
42.83
45.78
47.11
45.40
39.64
29.64
16.35
1.67
-12.12
-23.03
-30.03
-33.22
-33.60
-32.51
-31.07
-29.93
-29.29
-29.16
-29.63
-31.02
-33.69
-37.96
-43.79
-50.78
-58.15
-64.84
-69.69
-71.63
-69.81
-63.84
-53.77
-40.10
-23.56
-5.07
14.45
33.96
52.13
67.23
77.28
80.54
76.15
64.77
48.74
31.56
16.98
7.82
5.22
8.47
15.48
23.63
30.56
34.71
35.41
32.78
27.47
20.45
12.75
5.24
-1.61
-7.86
-14.08
-21.02
-29.14
-38.18
-46.99
-53.81
-56.92
-55.38
-49.47
-40.74
-31.52
-24.14
-20.40
-21.05
-25.88
-33.86
-43.53
-53.24
-61.40
-66.74
-68.59
-67.10
-63.22
-58.36
-53.80
-50.28
-47.82
-45.97
-44.13
-41.78
-38.50
-33.78
-26.97
-17.51
-5.22
9.38
25.11
40.56
54.64
66.94
77.71
87.47
96.62
105.21
112.95
119.22
123.22
124.04
120.87
113.46
102.37
89.16
76.05
65.26
58.12
54.59
53.24
51.76
47.85
39.95
27.74
12.12
-5.19
-22.28
-37.50
-49.89
-59.13
-65.43
-69.40
-71.77
-73.40
-75.09
-77.45
-80.59
-84.09
-87.08
-88.52
-87.70
-84.51
-79.52
-73.83
-68.74
-65.31
-64.07
-64.73
-66.23
-66.93
-65.13
-59.64
-50.19
-37.57
-23.18
-8.52
5.31
17.82
28.80
37.99
44.88
48.79
49.23
46.31
40.77
33.76
26.37
19.22
12.39
5.63
-1.31
-8.28
-14.83
-20.33
-24.35
-26.82
-28.08
-28.74
-29.53
-31.28
-34.79
-40.72
-49.24
-59.63
-70.07
-77.99
-80.77
-76.80
-66.09
-50.31
-32.23
-14.71
0.10
11.09
18.05
21.27
21.24
18.53
14.04
8.97
4.80
2.83
3.75
7.38
12.74
18.59
23.90
28.37
32.43
36.93
42.62
49.64
57.35
64.45
69.36
70.71
67.82
60.97
51.46
41.31
32.80
27.81
27.29
31.01
37.85
46.24
54.73
62.31
68.39
72.57
74.36
73.21
68.54
60.04
47.78
32.14
13.71
-6.72
-28.18
-49.44
-69.08
-85.75
-98.55
-107.27
-112.39
-114.83
-115.55
-115.31
-114.62
-113.82
-113.11
-112.52
-111.73
-109.76
-105.01
-95.55
-79.75
-57.07
-28.64
2.55
32.07
54.98
66.88
65.05
49.26
22.16
-10.83
-42.49
-65.53
-74.73
-68.68
-50.32
-25.85
-2.37
14.63
22.99
23.87
20.44
16.12
13.21
12.59
14.22
17.82
23.33
30.78
40.04
50.54
61.36
71.51
80.15
86.77
91.13
93.05
92.29
88.28
80.21
67.18
48.62
24.97
-1.91
-28.58
-50.74
-64.58
-68.33
-63.14
-52.87
-42.79
-37.64
-39.81
-48.43
-59.59
-67.71
-67.45
-55.63
-32.44
-1.57
30.83
58.07
74.87
78.74
70.31
52.78
30.71
8.77
-9.22
-20.90
-25.48
-23.63
-17.06
-8.04
1.30
9.35
15.10
18.18
18.78
17.72
16.42
16.53
19.13
24.27
30.79
36.53
39.28
37.39
30.38
18.97
4.72
-10.68
-25.10
-36.30
-42.55
-43.21
-39.37
-33.15
-26.49
-20.14
-13.99
-6.69
3.11
15.31
28.23
38.59
43.85
43.66
39.81
33.96
27.82
22.25
16.75
10.23
-0.04
-17.12
-43.69
-81.42
-131.01
-188.83
-246.79
-294.71
-323.34
-329.51
-315.94
-289.50
-248.23
-195.92
-139.48
-86.08
-45.16
-15.34
5.78
20.62
33.12
47.35
66.06
91.85
125.99
166.96
210.55
249.07
274.86
283.16
273.61
248.99
215.27
179.16
145.68
117.53
94.21
74.42
57.67
44.43
34.88
29.02
26.23
25.24
24.87
23.76
21.28
17.73
13.71
9.28
4.23
-1.77
-8.80
-16.23
-23.00
-27.56
-28.30
-24.24
-15.47
-3.01
11.47
26.09
39.07
48.78
54.00
54.03
48.79
38.65
24.14
5.70
-16.49
-42.30
-71.29
-102.27
-133.11
-160.97
-182.92
-196.91
-202.18
-199.48
-190.62
-177.97
-163.94
-150.66
-139.65
-131.77
-127.24
-125.42
-124.84
-123.38
-118.81
-109.43
-94.65
-74.81
-51.52
-27.31
-4.84
14.15
29.59
42.91
56.22
71.25
89.39
110.46
132.76
154.05
173.09
190.43
208.02
227.75
250.32
276.08
303.36
328.32
345.59
349.71
336.51
304.47
255.86
197.76
143.25
106.23
95.85
112.44
147.54
187.58
219.24
234.29
220.69
177.66
115.65
51.26
-2.51
-41.45
-67.54
-83.73
-91.59
-91.42
-82.19
-64.98
-43.64
-23.54
-8.79
-0.37
3.23
4.56
5.77
9.45
16.39
25.16
32.95
37.48
38.21
35.42
29.92
23.47
18.88
17.94
20.31
23.60
24.58
19.56
7.85
-11.65
-37.86
-67.11
-95.43
-120.38
-141.70
-160.30
-178.26
-200.73
-231.27
-268.95
-308.36
-342.86
-367.62
-381.16
-384.58
-382.21
-384.07
-399.33
-432.26
-481.03
-539.44
-598.97
-650.41
-684.88
-668.47
-586.67
-452.57
-301.32
-167.87
-69.58
-4.81
34.37
65.39
97.84
129.23
153.22
165.44
166.21
158.10
145.09
133.04
130.34
144.10
174.96
218.84
268.08
312.91
343.67
353.77
341.93
313.07
274.80
233.59
195.50
166.65
151.65
152.73
169.31
198.35
235.34
274.39
308.97
334.45
349.39
353.14
345.45
327.29
301.90
274.95
252.65
239.21
235.60
240.03
246.53
247.69
238.13
216.30
184.09
144.71
100.99
44.53
-24.71
-101.49
-178.55
-249.14
-306.25
-341.67
-348.10
-327.48
-283.11
-221.55
-153.94
-92.31
-45.57
-17.40
-6.75
-12.02
-30.12
-56.78
-87.14
-117.44
-143.52
-159.88
-160.38
-140.53
-100.48
-46.32
11.78
62.77
97.82
113.26
111.01
96.56
76.17
54.53
34.59
18.54
8.41
5.92
12.11
26.62
47.23
69.96
89.86
102.67
106.06
100.19
87.28
70.77
54.08
39.62
28.27
19.54
12.31
5.48
-1.95
-10.81
-22.03
-36.63
-55.37
-78.10
-103.32
-128.14
-149.06
-163.12
-169.01
-167.42
-160.66
-151.58
-142.39
-133.97
-125.75
-116.06
-102.87
-84.51
-60.35
-31.18
0.76
32.23
59.71
80.38
92.80
97.30
95.65
90.46
84.39
79.47
76.75
76.19
76.77
76.78
74.03
66.34
52.02
30.48
2.55
-29.43
-62.14
-92.16
-116.81
-134.76
-146.10
-151.88
-153.29
-151.01
-144.83
-133.80
-116.85
-93.51
-64.59
-32.29
0.17
29.50
53.17
70.10
80.62
86.02
87.81
87.20
84.81
80.71
74.51
65.59
53.40
37.79
19.41
-0.12
-18.42
-32.96
-41.80
-44.33
-41.34
-34.74
-26.92
-19.96
-15.19
-12.88
-12.20
-11.52
-8.94
-2.99
6.88
19.87
34.05
46.83
55.65
58.69
55.22
45.69
31.56
14.94
-1.86
-16.75
-28.34
-36.15
-40.69
-43.18
-45.05
-47.33
-50.37
-53.74
-56.57
-57.95
-57.43
-55.28
-52.46
-50.35
-50.32
-53.31
-59.51
-68.10
-77.25
-84.38
-86.72
-82.11
-69.68
-50.32
-26.47
-1.39
21.72
40.51
53.90
61.92
65.36
65.29
62.75
58.55
53.28
47.30
40.77
33.75
26.22
18.20
9.91
1.69
-5.94
-12.44
-17.46
-20.98
-23.43
-25.72
-28.99
-34.34
-42.33
-52.54
-63.40
-72.39
-76.65
-73.93
-63.39
-45.99
-24.14
-0.99
20.56
38.49
51.84
60.44
64.54
64.56
61.05
54.90
47.29
39.55
32.67
27.10
22.55
18.28
13.56
8.11
2.26
-3.24
-7.66
-10.74
-12.82
-14.79
-17.83
-22.97
-30.83
-41.27
-53.20
-64.59
-72.74
-75.04
-69.78
-56.83
-37.83
-15.66
6.46
25.89
41.15
51.81
58.05
60.30
58.93
54.43
47.56
39.39
31.11
23.58
17.12
11.33
5.47
-1.24
-9.08
-17.82
-26.75
-35.05
-42.17
-48.10
-53.41
-59.17
-66.66
-76.92
-90.26
-105.77
-121.24
-133.57
-139.65
-137.41
-126.69
-109.38
-88.72
-68.24
-50.78
-37.93
-30.23
-27.60
-29.77
-36.42
-47.05
-60.71
-76.15
-92.02
-107.38
-121.95
-136.00
-150.00
-163.92
-176.71
-186.22
-189.70
-184.76
-170.38
-147.57
-119.25
-89.46
-62.02
-39.50
-22.59
-10.40
-1.23
6.50
13.65
20.26
26.09
31.00
35.42
40.40
47.23
57.24
71.62
91.57
118.05
151.22
189.41
228.49
262.26
284.23
289.92
278.84
254.78
224.23
193.91
168.38
149.13
135.23
124.75
116.09
108.26
100.39
91.15
78.79
62.08
41.50
19.72
1.12
-9.62
-9.31
2.57
23.84
50.46
78.05
103.05
123.31
137.93
146.94
150.92
151.16
149.64
148.82
150.77
156.24
163.98
170.74
172.27
164.59
145.27
113.80
71.45
20.81
-34.45
-89.87
-140.41
-181.33
-209.23
-222.88
-223.23
-212.56
-193.36
-167.65
-137.08
-103.54
-69.45
-37.37
-9.06
15.22
36.54
56.39
75.41
92.93
107.10
115.57
115.86
105.45
82.12
44.96
-4.18
-59.87
-113.96
-158.15
-187.30
-201.48
-205.65
-207.01
-211.62
-222.03
-237.00
-252.78
-265.15
-270.76
-267.54
-254.44
-231.26
-198.66
-158.21
-112.47
-64.34
-16.47
29.36
72.34
112.35
149.42
183.22
213.01
237.89
257.25
271.02
279.52
283.09
281.74
275.22
263.24
245.72
222.90
195.23
163.23
127.59
89.26
49.62
10.40
-26.62
-59.80
-87.66
-108.55
-120.53
-121.70
-111.32
-91.08
-65.71
-42.24
-27.65
-25.95
-36.08
-51.72
-63.18
-60.80
-38.23
5.21
64.17
128.76
187.20
228.68
245.68
235.29
199.68
145.60
82.88
22.50
-25.98
-56.50
-67.45
-61.54
-44.12
-20.89
4.18
29.61
55.60
81.76
104.92
118.69
115.71
91.56
48.36
-4.40
-52.64
-82.76
-86.36
-62.45
-16.41
42.90
105.66
162.39
204.03
222.51
212.61
174.42
114.93
46.79
-15.65
-61.15
-85.33
-91.19
-86.64
-80.79
-80.57
-89.00
-105.24
-125.68
-145.50
-159.93
-165.45
-160.37
-144.97
-121.25
-92.42
-62.12
-33.77
-9.95
8.02
20.23
27.94
32.95
36.76
39.96
42.09
41.98
38.57
31.54
21.60
10.30
-0.45
-9.05
-14.61
-17.17
-17.70
-17.85
-19.46
-23.96
-31.83
-42.32
-53.66
-63.54
-69.88
-71.26
-67.17
-57.89
-44.31
-27.68
-9.60
8.17
23.85
35.99
43.74
47.05
46.61
43.54
38.94
33.66
28.03
22.03
15.48
8.26
0.48
-7.46
-15.04
-21.73
-27.19
-31.30
-34.15
-35.99
-37.22
-38.40
-40.17
-42.99
-46.93
-51.41
-55.16
-56.55
-54.11
-47.04
-35.50
-20.49
-3.49
13.90
30.32
44.72
56.34
64.67
69.48
70.96
69.76
66.95
63.76
61.24
59.89
59.52
59.25
57.98
54.86
49.77
43.63
38.19
35.53
37.27
43.80
53.70
64.01
70.99
71.29
63.34
47.94
28.19
8.62
-6.23
-13.20
-11.48
-2.80
9.13
19.95
26.02
25.65
19.44
10.00
0.74
-5.45
-7.17
-4.68
0.59
6.93
13.08
18.34
22.35
24.81
25.26
23.30
18.87
12.43
4.82
-3.10
-10.83
-18.35
-25.85
-33.37
-40.42
-45.90
-48.46
-46.96
-41.03
-31.28
-19.17
-6.59
4.66
13.44
19.29
22.41
23.28
22.38
20.02
16.35
11.43
5.29
-1.89
-9.80
-17.88
-25.41
-31.72
-36.54
-40.16
-43.34
-46.99
-51.66
-57.26
-63.10
-68.16
-71.58
-72.84
-71.78
-68.40
-62.71
-54.72
-44.57
-32.75
-20.15
-8.01
2.38
9.98
14.31
15.58
14.65
12.63
10.53
8.90
7.74
6.66
5.33
3.59
1.50
-0.75
-3.08
-5.67
-8.83
-12.95
-18.29
-24.84
-32.27
-39.94
-46.86
-51.78
-53.17
-49.37
-39.03
-21.56
2.36
30.56
59.60
85.57
105.08
116.26
119.24
116.01
109.67
103.25
98.83
97.00
97.27
98.79
101.10
104.26
108.29
112.47
114.87
112.73
103.55
86.12
60.91
29.50
-6.28
-44.61
-83.30
-119.11
-147.67
-164.53
-167.06
-156.05
-135.77
-112.45
-91.84
-77.31
-69.32
-66.38
-66.54
-68.51
-71.76
-76.05
-80.76
-84.95
-87.72
-88.82
-88.79
-88.61
-89.26
-91.04
-93.39
-95.10
-94.92
-92.10
-86.86
-80.27
-73.88
-69.01
-66.09
-64.53
-62.88
-59.47
-53.10
-43.50
-31.39
-18.15
-5.38
5.58
13.93
19.35
21.87
21.70
19.09
14.39
8.20
1.43
-4.82
-9.59
-12.53
-14.15
-15.80
-19.08
-25.18
-34.28
-45.51
-57.34
-68.21
-77.05
-83.31
-86.60
-86.33
-81.59
-71.46
-55.63
-34.76
-10.49
15.01
39.60
61.61
79.89
93.66
102.41
105.91
104.49
99.21
91.68
83.66
76.53
70.97
67.04
64.38
62.63
61.50
60.70
59.79
58.23
55.56
51.81
47.67
44.27
42.74
43.79
47.50
53.36
60.30
66.55
69.42
65.57
51.84
26.71
-8.51
-49.48
-90.14
-124.88
-150.55
-167.31
-177.76
-185.15
-191.66
-197.88
-203.36
-207.51
-209.97
-210.38
-207.85
-201.08
-189.14
-172.57
-154.02
-137.58
-127.08
-124.23
-127.61
-133.18
-135.94
-132.01
-120.12
-101.72
-80.17
-59.40
-42.75
-32.34
-28.99
-32.27
-40.69
-51.84
-62.87
-71.48
-76.96
-81.08
-87.75
-101.62
-125.88
-160.29
-200.53
-239.04
-267.46
-279.09
-270.79
-243.28
-200.25
-146.95
-88.73
-30.00
26.31
78.78
127.04
171.05
210.23
243.31
268.64
285.08
292.73
293.12
288.55
281.19
272.21
261.88
250.28
238.09
226.91
218.63
214.32
213.22
212.80
209.66
201.17
186.78
168.31
149.23
132.79
120.46
111.02
101.17
87.16
66.89
41.29
14.44
-7.70
-19.14
-15.58
4.57
39.84
85.74
135.15
179.14
208.51
215.93
198.00
156.40
97.44
30.15
-36.18
-94.09
-138.85
-168.26
-182.07
-181.42
-168.70
-147.59
-122.72
-99.05
-80.84
-70.73
-69.06
-73.87
-81.35
-86.91
-86.43
-77.50
-60.12
-36.62
-10.79
13.44
33.23
47.38
56.16
60.63
61.73
59.97
55.54
48.74
40.43
32.00
25.10
20.90
19.72
20.85
22.91
24.40
24.07
21.17
15.21
5.82
-7.15
-23.31
-41.17
-58.03
-70.29
-74.43
-68.13
-51.11
-25.33
5.63
37.61
66.94
91.07
108.72
119.56
123.92
122.40
115.78
105.02
91.23
75.64
59.50
43.87
29.49
16.71
5.52
-4.38
-13.49
-22.49
-32.24
-43.54
-56.83
-71.73
-86.60
-98.55
-104.08
-100.10
-85.15
-60.09
-28.00
6.70
39.63
67.55
88.97
103.92
113.36
118.46
120.24
119.39
116.44
111.85
106.10
99.73
93.16
86.67
80.40
74.36
68.48
62.57
56.20
48.70
39.15
26.75
11.32
-6.23
-23.68
-37.91
-45.77
-45.13
-35.71
-19.21
1.27
22.21
40.62
54.64
63.50
67.22
66.15
60.75
51.52
39.10
24.40
8.53
-7.30
-21.93
-34.50
-44.49
-51.77
-56.58
-59.43
-61.14
-62.75
-65.47
-70.47
-78.35
-88.61
-99.36
-107.49
-109.45
-102.45
-85.44
-59.69
-28.38
4.34
34.53
59.44
77.74
89.32
94.76
94.78
90.04
81.14
68.74
53.70
37.12
20.23
4.23
-9.92
-21.64
-30.78
-37.65
-42.94
-47.65
-52.97
-60.09
-69.81
-82.05
-95.50
-107.58
-114.92
-114.31
-103.80
-83.35
-55.02
-22.31
10.75
40.61
64.76
81.97
92.05
95.58
93.61
87.43
78.38
67.68
56.24
44.69
33.42
22.73
12.90
4.19
-3.28
-9.60
-15.14
-20.58
-26.79
-34.74
-45.14
-58.03
-72.39
-85.99
-95.69
-98.30
-91.57
-75.06
-50.41
-20.97
9.22
36.43
58.08
72.94
81.04
83.18
80.53
74.28
65.49
55.01
43.59
31.82
20.21
9.15
-1.09
-10.33
-18.38
-25.03
-30.10
-33.64
-36.09
-38.50
-42.25
-48.64
-58.16
-69.98
-81.80
-90.37
-92.45
-85.96
-70.63
-48.15
-21.55
5.74
30.73
51.39
66.64
76.08
79.79
78.23
72.33
63.51
53.46
43.78
35.63
29.31
24.45
20.27
16.05
11.47
6.75
2.35
-1.27
-4.03
-6.35
-8.98
-12.76
-18.31
-25.72
-34.40
-43.04
-49.88
-52.97
-50.73
-42.31
-27.98
-9.09
12.14
33.15
51.51
65.43
73.92
76.71
74.15
66.92
55.90
42.18
26.97
11.65
-2.32
-13.54
-20.99
-24.16
-23.25
-19.05
-12.73
-5.66
0.91
5.82
8.12
7.07
2.36
-5.66
-15.76
-25.86
-33.39
-35.91
-31.80
-20.74
-3.70
17.35
40.04
62.04
81.44
96.81
107.27
112.45
112.55
108.24
100.55
90.61
79.44
67.80
56.21
44.96
34.23
23.97
13.93
3.75
-6.98
-18.42
-30.48
-42.96
-55.81
-69.28
-83.90
-100.08
-117.57
-134.99
-149.84
-159.18
-160.49
-152.51
-135.59
-111.57
-83.20
-53.48
-25.23
-0.69
18.32
30.48
35.26
33.36
26.81
18.64
12.02
9.15
10.75
15.45
20.41
22.64
20.46
14.02
4.83
-5.47
-16.25
-27.95
-42.37
-61.68
-86.71
-115.75
-144.61
-168.02
-181.67
-183.83
-175.23
-159.70
-142.61
-128.21
-117.41
-107.29
-92.53
-67.68
-29.23
23.79
87.83
155.20
216.31
262.61
289.25
295.96
286.58
260.53
223.32
185.08
154.94
135.87
125.30
120.06
118.52
119.67
122.47
124.57
122.61
113.87
97.72
74.80
47.79
19.43
-9.43
-37.12
-62.08
-83.41
-100.60
-113.85
-125.67
-137.76
-150.79
-164.75
-179.62
-195.48
-214.30
-238.98
-271.56
-313.35
-359.43
-399.64
-422.93
-422.45
-398.05
-357.20
-310.65
-252.78
-187.47
-123.00
-66.62
-20.92
11.21
33.87
49.08
58.69
65.85
72.59
81.95
97.49
121.55
154.06
193.13
234.38
272.80
303.58
321.03
322.82
310.57
288.52
261.46
233.62
206.93
182.18
159.49
137.75
117.02
98.35
82.54
69.24
57.20
44.36
29.38
11.90
-7.88
-28.14
-45.96
-58.54
-64.43
-63.95
-59.21
-52.79
-47.23
-44.27
-43.69
-43.17
-39.33
-29.10
-10.75
15.32
46.88
79.60
108.14
127.88
136.30
133.31
120.95
102.73
80.47
59.75
47.08
46.00
55.45
71.70
90.79
109.75
126.67
140.67
151.31
157.91
160.16
158.68
154.93
150.26
145.08
138.17
128.92
116.48
100.10
79.62
55.83
30.26
4.50
-20.47
-44.49
-67.96
-91.68
-116.77
-144.23
-174.49
-206.80
-238.99
-267.70
-289.22
-300.63
-301.21
-292.78
-278.98
-263.49
-248.30
-232.92
-214.86
-191.23
-160.41
-123.28
-82.99
-43.94
-10.12
16.02
34.08
45.35
51.94
56.03
59.23
62.25
65.59
69.66
74.39
78.51
79.46
74.40
62.16
44.57
26.06
12.18
6.81
10.11
18.41
26.48
30.65
31.16
31.83
37.22
50.82
73.45
103.06
135.31
164.79
186.44
196.80
194.51
178.57
150.95
116.65
82.30
53.31
32.15
18.75
12.03
10.03
6.19
-4.98
-25.70
-54.44
-88.07
-123.42
-157.18
-185.21
-205.60
-225.45
-252.02
-288.08
-330.42
-373.26
-411.69
-442.59
-463.39
-475.69
-492.26
-524.37
-575.97
-643.04
-719.40
-801.58
-888.43
-976.97
-1002.77
-924.62
-746.84
-518.04
-292.75
-104.20
36.48
122.96
176.15
211.18
228.46
226.55
208.30
182.64
159.80
146.08
144.02
154.96
175.44
194.11
201.76
195.79
181.00
164.81
152.89
