0
1561173321.0
64.0
-0.0
-0.0
-0.0
-0.0
-0.0
-0.0
-0.0
-0.0
-0.0
-0.0
0.0
0.01
0.01
-0.0
-0.03
-0.05
-0.05
0.0
0.13
0.36
0.66
1.01
1.37
1.72
2.06
2.4
2.79
3.24
3.8
4.42
5.06
5.66
6.2
6.68
7.15
7.68
8.31
9.14
10.09
11.04
11.88
12.56
13.14
13.76
14.65
15.96
17.91
20.32
22.9
25.38
27.58
29.57
31.68
34.32
37.81
42.54
48.15
54.1
59.83
64.97
69.58
74.14
79.34
85.71
93.76
103.0
112.62
121.73
129.77
136.75
143.3
150.75
157.77
166.64
177.95
191.79
206.97
220.57
228.25
225.36
208.53
176.87
132.76
80.05
23.07
-34.94
-92.44
-149.16
-205.23
-260.37
-313.74
-363.87
-409.83
-450.91
-486.5
-515.74
-537.23
-549.22
-549.96
-538.37
-514.21
-478.67
-433.88
-382.44
-327.0
-269.81
-212.58
-156.59
-102.85
-52.24
-5.73
35.8
71.7
101.68
125.89
144.83
159.2
169.72
177.01
181.46
183.35
182.92
180.44
176.25
170.76
164.39
157.46
150.25
142.87
135.41
127.91
120.41
112.98
105.68
98.59
91.76
85.22
78.99
73.09
67.51
62.28
57.41
52.9
48.75
44.97
41.54
38.47
35.74
33.36
31.31
29.6
28.21
27.14
26.38
25.92
25.75
25.86
26.25
26.89
27.75
28.81
30.0
31.24
32.41
33.38
33.99
34.07
33.48
32.08
29.8
26.63
22.63
17.86
12.51
6.82
1.04
-4.58
-9.78
-14.36
-18.14
-21.04
-23.03
-24.1
-24.36
-23.89
-22.84
-21.33
-19.5
-17.45
-15.25
-12.98
-10.64
-8.28
-5.92
-3.57
-1.22
1.15
3.56
6.04
8.6
11.3
14.09
16.96
19.89
22.9
25.98
29.17
32.51
36.05
39.86
43.87
48.01
52.27
56.65
61.15
65.8
70.63
75.72
81.17
86.82
92.57
98.39
104.25
110.14
116.1
122.12
128.26
134.57
140.76
146.57
151.76
156.07
159.17
160.65
159.92
156.18
150.92
144.7
137.83
130.55
123.03
115.45
107.93
100.61
93.63
87.14
80.94
74.89
68.94
63.08
57.34
51.78
46.45
41.41
36.77
32.33
28.0
23.73
19.54
15.5
11.65
8.05
4.74
1.69
-1.25
-4.21
-7.24
-10.3
-13.27
-16.07
-18.64
-21.04
-23.4
-26.02
-29.07
-32.61
-36.49
-40.46
-44.24
-47.69
-50.89
-54.18
-57.95
-62.56
-68.02
-74.09
-80.27
-86.12
-91.43
-96.44
-101.76
-108.16
-116.2
-126.04
-137.34
-149.46
-161.78
-173.95
-186.12
-198.78
-212.63
-228.57
-247.54
-270.41
-297.37
-327.33
-357.49
-383.7
-401.52
-407.8
-401.73
-384.98
-360.79
-332.48
-302.35
-271.45
-240.11
-208.82
-178.53
-150.52
-125.6
-103.75
-84.12
-65.53
-47.25
-29.3
-12.32
2.71
15.05
24.45
31.22
36.08
39.9
43.45
47.16
51.03
54.7
57.65
59.53
60.37
60.5
60.41
60.41
60.49
60.41
59.83
58.57
56.61
54.02
50.88
47.19
42.99
38.39
33.66
29.08
24.83
20.92
17.15
13.22
8.81
3.63
-2.5
-9.54
-17.03
-24.13
-29.65
-32.36
-31.42
-26.6
-18.44
-8.01
3.37
14.55
24.73
33.5
40.72
46.39
50.59
53.49
55.38
56.61
57.55
58.42
59.24
59.94
60.36
60.48
60.39
60.26
60.19
60.13
59.89
59.34
58.54
57.74
57.26
57.21
57.4
57.35
56.72
55.69
55.14
56.35
60.44
67.57
76.64
85.46
91.21
91.38
84.31
69.47
47.42
19.78
-10.78
-40.63
-65.73
-82.71
-90.05
-88.61
-81.34
-71.81
-62.62
-54.38
-45.92
-35.49
-22.14
-6.55
9.27
22.96
32.95
38.89
41.38
41.32
39.38
35.86
30.97
25.0
18.48
12.09
6.32
1.35
-2.95
-6.89
-10.7
-14.48
-18.03
-20.99
-22.93
-23.51
-22.66
-20.62
-18.01
-15.58
-14.03
-13.73
-14.56
-16.03
-17.54
-18.61
-19.16
-19.49
-20.13
-21.56
-23.98
-27.23
-30.92
-34.65
-38.2
-41.6
-45.09
-49.02
-53.73
-59.48
-66.29
-73.79
-81.02
-86.56
-88.74
-86.23
-78.55
-66.31
-51.06
-34.8
-19.32
-5.91
4.78
12.25
16.05
15.62
10.61
1.38
-10.81
-23.9
-35.8
-45.04
-50.97
-53.59
-52.88
-48.53
-40.07
-27.63
-12.45
3.14
16.54
25.75
30.17
30.83
30.0
30.38
34.09
42.25
54.53
69.61
85.63
101.13
115.49
129.07
142.65
156.65
170.34
181.28
185.57
178.08
153.93
109.55
43.85
-40.59
-136.78
-233.81
-318.92
-380.81
-413.86
-419.4
-405.13
-381.57
-357.75
-338.09
-321.84
-304.85
-282.2
-251.76
-214.44
-173.88
-134.87
-101.9
-77.95
-63.92
-58.37
-51.72
-35.1
-1.67
49.97
115.07
184.89
251.16
309.0
356.93
395.09
422.57
438.19
441.04
432.04
414.05
391.45
368.59
348.38
331.59
316.3
301.01
282.16
257.72
227.55
193.61
159.05
126.98
99.56
77.02
58.21
40.9
23.21
3.75
-17.44
-39.13
-59.76
-78.04
-94.06
-109.36
-127.07
-147.87
-173.71
-206.52
-247.51
-296.17
-349.06
-399.52
-438.56
-457.62
-451.33
-420.28
-370.38
-310.54
-249.15
-191.4
-138.52
-89.04
-41.03
6.46
52.56
95.6
133.88
166.1
191.36
209.02
218.79
220.89
216.0
204.9
188.46
167.58
143.43
117.93
93.99
75.26
65.28
66.32
78.46
99.57
125.85
152.97
177.23
196.33
209.51
217.08
219.59
217.18
209.26
195.02
174.05
147.07
116.02
83.63
52.54
24.77
1.48
-16.72
-29.54
-36.98
-39.58
-38.76
-36.56
-35.04
-35.41
-37.71
-41.11
-44.66
-48.08
-51.81
-56.65
-63.09
-71.07
-80.1
-89.55
-98.8
-107.01
-112.84
-114.64
-110.95
-101.24
-86.42
-68.65
-50.62
-34.62
-21.97
-12.98
-7.27
-4.26
-3.23
-3.46
-4.22
-4.86
-5.15
-5.43
-6.45
-9.01
-13.37
-18.98
-24.75
-29.65
-33.36
-36.51
-40.29
-45.68
-52.78
-60.59
-67.47
-71.81
-72.71
-70.08
-64.58
-57.09
-48.48
-39.45
-30.67
-22.8
-16.56
-12.48
-10.74
-11.11
-12.97
-15.67
-18.71
-22.03
-25.9
-30.74
-36.82
-44.18
-52.55
-61.47
-70.41
-78.92
-86.67
-93.5
-99.46
-104.82
-109.9
-114.92
-119.69
-123.52
-125.23
-123.48
-117.18
-105.98
-90.47
-72.1
-52.73
-34.03
-16.97
-1.67
12.32
25.5
37.92
49.12
58.36
65.09
69.16
70.69
69.87
66.73
61.43
54.65
47.93
43.46
43.36
48.86
59.72
74.42
90.83
107.14
122.3
136.07
148.57
159.78
169.26
176.38
180.68
182.17
181.39
179.07
175.69
171.1
164.61
155.43
143.34
129.08
114.26
100.86
90.43
83.5
79.55
77.39
75.8
73.97
71.76
69.46
67.45
65.87
64.38
62.27
58.75
53.23
45.57
36.03
25.11
13.36
1.34
-10.45
-21.52
-31.42
-40.01
-47.47
-54.36
-61.35
-68.93
-77.1
-85.35
-92.72
-98.11
-100.57
-99.58
-95.13
-87.84
-78.69
-68.74
-58.81
-49.29
-40.27
-31.79
-24.03
-17.33
-11.97
-7.97
-5.1
-3.12
-2.0
-1.98
-3.32
-5.98
-9.34
-12.42
-14.27
-14.4
-12.93
-10.42
-7.45
-4.42
-1.39
1.75
5.19
9.16
13.93
19.7
26.35
33.22
39.05
42.34
41.89
37.36
29.47
19.73
9.82
0.99
-6.28
-12.22
-17.34
-22.04
-26.34
-29.84
-31.85
-31.62
-28.59
-22.51
-13.63
-2.67
9.31
21.11
31.73
40.6
47.56
52.82
56.67
59.28
60.63
60.41
58.14
53.33
45.65
35.15
22.49
8.97
-3.84
-14.5
-22.3
-27.39
-30.67
-33.3
-36.15
-39.45
-42.96
-46.19
-48.86
-51.0
-52.81
-54.51
-56.16
-57.68
-59.1
-60.72
-63.24
-67.42
-73.77
-82.08
-91.37
-100.04
-106.54
-109.99
-110.53
-109.22
-107.45
-106.03
-104.66
-101.82
-95.44
-83.84
-66.46
-44.11
-18.57
8.12
34.32
58.89
81.1
100.37
116.24
128.55
137.72
144.71
150.76
157.02
164.06
171.83
179.76
187.1
193.11
197.3
199.42
199.45
197.44
193.35
186.94
177.73
165.41
150.19
133.11
115.87
100.18
86.93
75.6
64.46
51.34
34.7
14.35
-8.47
-31.72
-53.42
-72.26
-87.77
-100.06
-109.34
-115.71
-119.29
-120.27
-119.15
-116.62
-113.28
-109.38
-104.73
-98.71
-90.63
-80.11
-67.36
-53.35
-39.66
-28.04
-19.87
-15.59
-14.67
-15.72
-17.14
-17.61
-16.4
-13.36
-8.6
-2.3
5.44
14.45
24.39
34.64
44.47
53.14
60.24
65.75
69.89
73.0
75.23
76.37
75.87
72.97
66.99
57.69
45.49
31.55
17.39
4.47
-6.21
-14.3
-19.97
-23.69
-25.95
-27.2
-27.94
-28.7
-29.96
-31.94
-34.32
-36.32
-36.93
-35.51
-32.08
-27.56
-23.3
-20.64
-20.34
-22.29
-25.65
-29.1
-31.39
-31.66
-29.73
-26.05
-21.48
-16.91
-13.02
-10.07
-8.07
-6.97
-6.74
-7.27
-8.1
-8.28
-6.6
-2.2
4.81
13.15
20.72
25.55
26.66
24.42
20.19
15.46
11.03
6.6
1.13
-6.42
-16.42
-28.21
-40.37
-51.32
-59.94
-65.99
-70.21
-73.88
-78.29
-84.19
-91.49
-99.33
-106.51
-111.84
-114.46
-113.85
-109.73
-101.97
-90.66
-76.21
-59.48
-41.6
-23.62
-6.15
10.79
27.49
43.98
59.52
72.53
80.96
83.14
78.65
68.66
55.73
42.96
32.91
26.7
23.68
21.88
18.89
12.95
3.6
-8.16
-20.39
-30.92
-38.17
-41.55
-41.41
-38.77
-34.92
-31.06
-28.09
-26.48
-26.13
-26.41
-26.29
-24.81
-21.53
-16.85
-12.03
-8.82
-8.81
-12.82
-20.6
-30.76
-41.11
-49.16
-52.56
-49.73
-40.2
-24.94
-6.1
13.42
30.86
44.44
53.61
59.05
62.0
63.67
64.83
65.78
66.55
67.14
67.57
67.79
67.49
65.95
62.15
55.03
43.92
29.04
11.95
-4.46
-16.41
-20.27
-13.74
3.16
27.87
56.13
83.24
105.44
120.66
128.52
129.73
125.31
116.17
103.02
86.66
68.11
48.61
29.41
11.53
-4.49
-18.58
-31.1
-42.68
-53.96
-65.26
-76.27
-85.86
-92.39
-94.23
-90.5
-81.65
-69.44
-56.48
-45.43
-38.2
-35.59
-37.35
-42.56
-50.04
-58.61
-67.21
-74.82
-80.4
-82.94
-81.66
-76.21
-66.87
-54.55
-40.59
-26.47
-13.49
-2.56
5.85
11.54
14.48
14.76
12.6
8.38
2.73
-3.66
-10.14
-16.34
-22.22
-28.07
-34.29
-41.28
-49.24
-58.05
-67.37
-76.7
-85.65
-94.13
-102.47
-111.32
-121.44
-133.32
-146.94
-161.68
-176.42
-189.84
-200.72
-208.25
-212.21
-213.1
-211.85
-209.42
-206.07
-200.84
-191.51
-175.3
-149.96
-115.0
-72.28
-25.66
20.08
60.65
93.18
116.63
131.48
139.14
141.6
141.0
139.54
139.12
141.02
145.6
152.23
159.5
165.67
169.22
169.36
166.19
160.76
154.72
149.95
148.01
149.63
154.44
160.99
167.08
170.25
168.53
160.76
146.89
127.9
105.46
81.41
57.32
34.2
12.58
-7.18
-24.52
-38.49
-47.94
-51.84
-49.76
-42.15
-30.26
-15.73
-0.23
14.91
28.81
40.99
51.22
59.62
66.47
72.18
77.19
81.73
85.81
89.2
91.65
92.84
92.69
91.23
88.62
84.96
80.19
73.87
65.35
53.95
39.29
21.76
2.65
-15.91
-31.55
-42.31
-47.42
-47.59
-44.82
-41.89
-41.58
-45.98
-56.13
-71.8
-91.63
-113.49
-134.97
-154.04
-169.43
-180.82
-188.47
-192.81
-193.9
-191.32
-184.46
-173.02
-157.41
-138.89
-119.18
-100.02
-82.74
-68.09
-56.28
-47.17
-40.41
-35.47
-31.66
-28.11
-23.87
-18.19
-10.71
-1.6
8.4
18.3
27.07
33.97
38.72
41.5
42.8
43.18
43.05
42.59
41.87
40.96
40.01
39.29
39.05
39.28
39.66
39.66
38.79
36.87
34.26
31.76
30.47
31.54
35.93
44.22
56.34
71.39
87.61
102.68
114.31
120.84
121.69
117.31
108.7
97.01
83.16
67.88
52.0
36.59
22.78
11.53
3.31
-2.04
-5.14
-6.68
-7.21
-6.89
-5.64
-3.35
-0.13
3.6
7.24
10.25
12.4
13.8
14.81
15.73
16.58
17.09
16.75
15.13
12.11
7.84
2.71
-2.9
-8.74
-14.66
-20.5
-26.06
-31.06
-35.29
-38.69
-41.39
-43.59
-45.41
-46.65
-46.81
-45.25
-41.53
-35.68
-28.3
-20.44
-13.12
-7.06
-2.45
0.97
3.72
6.25
8.76
11.29
13.83
16.44
19.36
22.92
27.31
32.5
38.23
44.04
49.51
54.32
58.36
61.6
64.11
65.88
66.97
67.48
67.58
67.51
67.3
66.83
65.76
63.79
60.86
57.29
53.68
50.6
48.33
46.63
44.92
42.5
38.91
34.03
28.12
21.55
14.59
7.33
-0.3
-8.34
-16.66
-24.89
-32.62
-39.54
-45.62
-51.14
-56.61
-62.55
-69.31
-76.96
-85.32
-93.97
-102.31
-109.51
-114.55
-116.36
-114.1
-107.56
-97.37
-84.98
-72.2
-60.63
-51.25
-44.18
-38.94
-34.9
-31.61
-28.97
-27.02
-25.77
-24.99
-24.36
-23.64
-22.8
-22.07
-21.62
-21.42
-21.0
-19.61
-16.5
-11.23
-3.9
4.97
14.6
24.3
33.63
42.33
50.16
56.71
61.28
63.1
61.57
56.61
48.8
39.25
29.26
19.95
12.05
5.84
1.25
-1.97
-4.11
-5.36
-5.84
-5.56
-4.44
-2.36
0.83
5.26
10.97
17.82
25.46
33.24
40.34
45.94
49.45
50.78
50.3
48.65
46.42
43.88
40.97
37.51
33.4
28.73
23.76
18.74
13.84
9.15
4.75
0.82
-2.42
-4.74
-6.08
-6.47
-6.11
-5.19
-3.94
-2.62
-1.48
-0.77
-0.68
-1.22
-2.24
-3.57
-5.05
-6.67
-8.53
-10.75
-13.34
-16.19
-19.01
-21.52
-23.5
-24.94
-26.01
-27.05
-28.42
-30.38
-32.97
-35.88
-38.49
-39.96
-39.5
-36.59
-31.19
-23.76
-15.11
-6.15
2.43
10.18
16.96
22.72
27.39
30.84
33.02
33.95
33.87
33.12
31.97
30.57
28.91
26.86
24.39
21.6
18.79
16.28
14.32
12.88
11.71
10.52
9.1
7.46
5.85
4.57
3.84
3.63
3.62
3.33
2.36
0.52
-2.1
-5.2
-8.4
-11.4
-14.0
-16.21
-18.09
-19.83
-21.64
-23.82
-26.61
-30.13
-34.18
-38.11
-40.86
-41.18
-38.08
-31.2
-20.98
-8.6
4.46
16.83
27.67
36.72
44.18
50.32
55.3
59.11
61.63
62.69
62.14
59.88
55.86
50.12
42.93
34.78
26.33
18.27
11.06
4.96
-0.01
-3.98
-7.06
-9.44
-11.3
-12.93
-14.64
-16.69
-19.23
-22.19
-25.45
-28.88
-32.46
-36.26
-40.39
-44.87
-49.64
-54.48
-59.12
-63.27
-66.65
-69.11
-70.62
-71.38
-71.8
-72.47
-73.93
-76.44
-79.68
-82.59
-83.62
-81.16
-74.16
-62.55
-47.39
-30.56
-14.11
0.28
11.77
20.35
26.5
30.95
34.24
36.71
38.5
39.62
40.07
39.81
38.86
37.28
35.27
33.09
31.04
29.31
27.9
26.65
25.34
23.8
22.04
20.19
18.34
16.47
14.38
11.83
8.69
5.03
1.12
-2.72
-6.24
-9.3
-11.77
-13.49
-14.35
-14.29
-13.56
-12.58
-11.91
-11.96
-12.84
-14.45
-16.54
-19.05
-22.12
-26.11
-31.19
-37.06
-42.75
-46.77
-47.63
-44.4
-37.19
-27.08
-15.77
-4.84
4.69
12.52
18.9
24.2
28.6
32.04
34.34
35.32
34.94
33.26
30.44
26.76
22.63
18.63
15.29
13.02
11.91
11.81
12.5
13.82
15.68
17.97
20.43
22.68
24.34
25.25
25.63
25.98
26.7
27.91
29.21
29.86
29.05
26.29
21.56
15.32
8.35
1.48
-4.64
-9.69
-13.84
-17.66
-22.03
-27.77
-35.27
-44.13
-53.13
-60.42
-64.1
-62.92
-56.7
-46.46
-33.98
-21.24
-9.69
-0.06
7.59
13.55
18.05
21.18
22.97
23.59
23.43
22.98
22.61
22.35
21.96
21.08
19.54
17.46
15.31
13.65
12.93
13.28
14.45
15.9
17.0
17.21
16.27
14.3
11.64
8.79
6.15
3.85
1.74
-0.56
-3.37
-6.88
-11.0
-15.44
-19.86
-23.94
-27.56
-30.82
-33.99
-37.45
-41.59
-46.62
-52.37
-58.15
-62.73
-64.64
-62.57
-55.89
-44.98
-31.13
-16.22
-2.04
10.05
19.49
26.32
30.99
34.03
35.94
37.1
37.78
38.22
38.53
38.68
38.52
37.85
36.51
34.53
32.05
29.39
26.86
24.76
23.29
22.5
22.32
22.49
22.65
22.39
21.35
19.34
16.45
13.01
9.42
6.03
2.94
0.02
-3.02
-6.38
-10.15
-14.21
-18.34
-22.3
-25.92
-29.14
-32.01
-34.63
-37.19
-39.96
-43.32
-47.55
-52.66
-58.12
-62.81
-65.18
-63.76
-57.69
-47.12
-33.23
-17.87
-2.96
10.06
20.45
28.23
33.76
37.51
39.86
41.06
41.4
41.24
41.01
41.04
41.4
41.82
41.79
40.78
38.54
35.3
31.7
28.62
26.7
26.09
26.36
26.67
26.18
24.35
21.11
16.74
11.72
6.41
0.97
-4.59
-10.35
-16.3
-22.34
-28.26
-33.86
-39.02
-43.7
-47.89
-51.61
-54.88
-57.75
-60.36
-63.06
-66.29
-70.36
-75.24
-80.24
-84.09
-85.25
-82.37
-74.84
-63.03
-48.14
-31.89
-15.93
-1.53
10.6
20.25
27.54
32.77
36.29
38.46
39.6
40.03
39.96
39.58
38.95
38.13
37.12
36.0
34.91
34.08
33.8
34.28
35.59
37.46
39.45
40.99
41.63
41.15
39.72
37.66
35.3
32.81
30.09
26.83
22.67
17.42
11.15
4.25
-2.77
-9.36
-15.2
-20.29
-24.9
-29.54
-34.73
-40.75
-47.55
-54.63
-61.11
-65.83
-67.59
-65.46
-59.02
-48.57
-35.12
-20.23
-5.6
7.36
17.8
25.5
30.79
34.24
36.4
37.71
38.46
38.9
39.18
39.39
39.49
39.32
38.63
37.25
35.2
32.71
30.19
28.07
26.66
26.08
26.18
26.6
26.83
26.4
25.0
22.63
19.53
16.12
12.73
9.51
6.36
3.03
-0.73
-5.01
-9.71
-14.54
-19.24
-23.55
-27.39
-30.77
-33.84
-36.9
-40.31
-44.48
-49.62
-55.55
-61.47
-66.01
-67.53
-64.67
-56.9
-44.76
-29.81
-14.04
0.69
13.14
22.89
30.08
35.19
38.67
40.88
42.1
42.61
42.73
42.71
42.73
42.68
42.34
41.4
39.69
37.25
34.44
31.71
29.5
28.04
27.28
26.96
26.71
26.16
25.02
23.18
20.62
17.44
13.87
10.15
6.52
3.12
-0.1
-3.33
-6.82
-10.76
-15.18
-19.95
-24.75
-29.23
-33.12
-36.36
-39.12
-41.81
-44.93
-48.94
-54.02
-59.88
-65.67
-70.07
-71.58
-68.97
-61.74
-50.32
-35.97
-20.46
-5.55
7.41
17.74
25.31
30.41
33.48
35.0
35.41
35.09
34.36
33.45
32.46
31.42
30.22
28.76
26.98
24.9
22.72
20.76
19.36
18.71
18.79
19.27
19.64
19.44
18.38
16.47
13.99
11.27
8.55
5.89
3.09
-0.09
-3.86
-8.25
-13.01
-17.75
-22.05
-25.65
-28.62
-31.27
-34.15
-37.8
-42.56
-48.37
-54.65
-60.34
-64.04
-64.38
-60.38
-51.85
-39.47
-24.69
-9.32
4.99
17.11
26.53
33.32
37.84
40.56
41.95
42.41
42.33
41.99
41.5
40.86
39.9
38.44
36.4
33.85
31.01
28.24
25.9
24.26
23.45
23.33
23.6
23.83
23.63
22.71
20.99
18.61
15.81
12.83
9.77
6.54
2.95
-1.22
-6.01
-11.3
-16.73
-21.93
-26.55
-30.47
-33.83
-36.97
-40.36
-44.48
-49.59
-55.61
-61.9
-67.22
-69.99
-68.74
-62.58
-51.65
-37.11
-20.85
-4.91
9.11
20.3
28.44
33.84
37.04
38.62
39.14
39.11
38.93
38.82
38.87
38.95
38.84
38.31
37.17
35.37
33.05
30.53
28.22
26.47
25.46
25.13
25.2
25.27
24.99
24.13
22.62
20.49
17.84
14.81
11.54
8.16
4.74
1.23
-2.57
-6.85
-11.73
-17.11
-22.67
-28.01
-32.77
-36.82
-40.36
-43.86
-47.95
-53.23
-59.88
-67.52
-75.08
-80.91
-83.27
-80.83
-73.24
-61.27
-46.66
-31.57
-17.92
-6.93
0.99
6.08
8.89
10.06
10.12
9.41
8.23
6.68
4.75
2.36
-0.46
-3.32
-5.36
-5.29
-1.81
5.96
17.95
33.09
49.52
65.11
78.02
87.11
92.07
93.2
91.14
86.67
80.47
73.16
65.26
57.24
49.44
42.07
35.11
28.35
21.48
14.26
6.69
-0.92
-8.01
-14.07
-18.84
-22.46
-25.4
-28.21
-31.27
-34.58
-37.88
-40.68
-42.39
-42.33
-39.81
-34.28
-25.6
-14.31
-1.62
10.87
21.63
29.69
34.84
37.53
38.47
38.37
37.71
36.79
35.81
34.92
34.23
33.7
33.12
32.19
30.64
28.43
25.71
22.78
19.97
17.49
15.33
13.4
11.56
9.72
7.81
5.78
3.52
0.98
-1.89
-5.03
-8.34
-11.73
-15.18
-18.73
-22.38
-25.99
-29.34
-32.16
-34.36
-36.08
-37.72
-39.85
-43.02
-47.51
-53.19
-59.33
-64.68
-67.65
-66.77
-61.23
-51.23
-38.03
-23.54
-9.72
2.01
11.02
17.4
21.7
24.49
26.26
27.37
28.08
28.58
28.96
29.16
28.99
28.24
26.82
24.82
22.54
20.34
18.58
17.51
17.25
17.74
18.75
19.88
20.63
20.57
19.42
17.24
14.34
11.23
8.35
5.92
3.86
1.82
-0.62
-3.78
-7.73
-12.22
-16.84
-21.16
-24.86
-27.89
-30.41
-32.72
-35.2
-38.21
-41.99
-46.56
-51.58
-56.2
-59.22
-59.29
-55.44
-47.43
-36.02
-22.68
-9.18
2.95
12.83
20.27
25.56
29.16
31.47
32.78
33.29
33.22
32.82
32.34
31.91
31.5
30.89
29.85
28.24
26.13
23.82
21.73
20.18
19.36
19.16
19.32
19.5
19.39
18.78
17.56
15.66
13.13
10.03
6.57
3.02
-0.37
-3.47
-6.33
-9.19
-12.33
-15.91
-19.86
-23.91
-27.67
-30.87
-33.47
-35.71
-38.01
-40.81
-44.4
-48.8
-53.72
-58.4
-61.74
-62.46
-59.46
-52.19
-40.99
-27.11
-12.35
1.45
12.97
21.63
27.6
31.46
33.84
35.2
35.74
35.54
34.7
33.41
31.9
30.41
28.99
27.59
26.03
24.21
22.19
20.19
18.56
17.56
17.29
17.54
17.92
17.97
17.37
16.01
14.01
11.72
9.45
7.43
5.6
3.72
1.42
-1.61
-5.45
-9.96
-14.76
-19.37
-23.4
-26.66
-29.2
-31.32
-33.47
-36.15
-39.72
-44.27
-49.42
-54.34
-57.73
-58.26
-54.87
-47.21
-35.84
-22.07
-7.64
5.81
17.15
25.85
31.92
35.71
37.68
38.27
37.92
37.0
35.79
34.42
32.87
30.95
28.58
25.81
22.86
20.07
17.73
15.96
14.72
13.86
13.24
12.79
12.47
12.18
11.79
11.06
9.79
7.92
5.53
2.86
0.21
-2.2
-4.25
-5.98
-7.52
-9.12
-10.97
-13.21
-15.82
-18.6
-21.28
-23.64
-25.6
-27.3
-29.0
-31.01
-33.62
-37.03
-41.23
-45.89
-50.29
-53.28
-53.61
-50.26
-42.89
-32.04
-19.08
-5.77
6.29
16.06
23.23
28.08
31.13
32.89
33.73
33.87
33.48
32.69
31.66
30.47
29.14
27.63
25.89
23.9
21.69
19.39
17.17
15.2
13.65
12.65
12.25
12.43
13.07
13.97
14.88
15.59
15.93
15.78
15.13
13.99
12.35
10.23
7.58
4.45
0.96
-2.71
-6.34
-9.76
-12.87
-15.66
-18.16
-20.32
-22.06
-23.24
-23.74
-23.56
-22.86
-21.86
-20.82
-19.83
-18.81
-17.62
-16.16
-14.57
-13.2
-12.47
-12.59
-13.26
-13.65
-12.59
-9.1
-2.81
5.72
15.21
24.0
30.67
34.42
35.19
33.53
30.26
26.17
21.84
17.62
13.7
10.2
7.17
4.6
2.44
0.56
-1.18
-2.9
-4.68
-6.45
-8.02
-9.09
-9.38
-8.73
-7.26
-5.33
-3.45
-2.08
-1.43
-1.47
-2.03
-2.92
-4.05
-5.44
-7.12
-9.05
-11.16
-13.39
-15.73
-18.2
-20.78
-23.37
-25.81
-27.97
-29.89
-31.82
-34.2
-37.52
-42.12
-47.96
-54.49
-60.62
-64.95
-66.07
-63.06
-55.78
-44.96
-31.96
-18.37
-5.63
5.26
13.74
19.61
22.97
24.16
23.73
22.37
20.68
19.07
17.66
16.33
14.87
13.11
10.98
8.5
5.79
2.98
0.25
-2.23
-4.3
-5.95
-7.29
-8.51
-9.74
-10.91
-11.77
-11.99
-11.34
-9.93
-8.29
-7.23
-7.54
-9.68
-13.53
-18.41
-23.37
-27.62
-30.86
-33.41
-36.04
-39.53
-44.2
-49.62
-54.65
-57.76
-57.55
-53.17
-44.59
-32.59
-18.52
-3.92
9.81
21.66
31.15
38.2
43.05
46.08
47.73
48.46
48.72
48.88
49.11
49.33
49.24
48.42
46.56
43.65
40.06
36.33
32.98
30.26
28.12
26.23
24.26
22.01
19.53
16.98
14.54
12.24
9.91
7.29
4.14
0.4
-3.84
-8.41
-13.09
-17.74
-22.28
-26.68
-31.0
-35.46
-40.36
-45.99
-52.36
-58.95
-64.63
-67.88
-67.23
-61.77
-51.59
-37.75
-22.0
-6.27
7.83
19.37
28.14
34.42
38.74
41.66
43.62
44.97
45.97
46.77
47.43
47.82
47.66
46.64
44.52
41.39
37.67
34.02
31.09
29.27
28.5
28.35
28.17
27.4
25.75
23.33
20.49
17.67
15.08
12.69
10.19
7.2
3.46
-1.05
-6.12
-11.36
-16.44
-21.1
-25.3
-29.12
-32.82
-36.72
-41.23
-46.63
-52.87
-59.31
-64.73
-67.53
-66.2
-59.91
-48.84
-34.18
-17.79
-1.64
12.64
24.1
32.44
37.85
40.87
42.17
42.5
42.52
42.67
43.07
43.53
43.64
42.95
41.19
38.39
34.89
31.22
27.92
25.35
23.58
22.42
21.53
20.57
19.28
17.58
15.52
13.24
10.84
8.34
5.64
2.57
-1.03
-5.21
-9.82
-14.54
-18.97
-22.77
-25.82
-28.29
-30.62
-33.35
-37.05
-42.07
-48.43
-55.64
-62.63
-67.87
-69.68
-66.8
-58.84
-46.51
-31.42
-15.55
-0.69
11.95
21.86
29.02
33.69
36.31
37.36
37.43
37.13
36.86
36.79
36.73
36.29
35.09
32.99
30.17
27.1
24.45
22.78
22.4
23.22
24.76
26.36
27.41
27.59
26.91
25.63
24.04
22.38
20.67
18.82
16.7
14.2
11.23
7.71
3.65
-0.89
-5.75
-10.68
-15.54
-20.34
-25.37
-31.07
-37.76
-45.3
-52.89
-59.16
-62.48
-61.56
-55.91
-46.07
-33.44
-19.78
-6.68
4.77
14.11
21.35
26.75
30.65
33.43
35.45
37.03
38.4
39.65
40.76
41.57
41.94
41.71
40.87
39.47
37.66
35.69
33.81
32.27
31.18
30.52
30.13
29.7
28.91
27.48
25.25
22.27
18.74
14.97
11.24
7.74
4.45
1.19
-2.27
-6.11
-10.31
-14.71
-19.03
-23.0
-26.43
-29.34
-31.89
-34.36
-37.07
-40.35
-44.4
-49.22
-54.47
-59.36
-62.77
-63.47
-60.48
-53.45
-42.82
-29.74
-15.69
-2.1
9.95
19.87
27.41
32.63
35.73
37.14
37.39
37.12
36.81
36.74
36.84
36.81
36.27
34.96
32.83
30.1
27.18
24.51
22.47
21.24
20.73
20.67
20.65
20.34
19.55
18.29
16.73
15.06
13.43
11.81
10.08
8.07
5.7
3.02
0.21
-2.51
-4.98
-7.19
-9.27
-11.42
-13.88
-16.72
-19.84
-23.04
-26.06
-28.73
-30.99
-32.95
-34.77
-36.7
-39.0
-41.97
-45.83
-50.61
-55.89
-60.74
-63.82
-63.67
-59.34
-50.72
-38.69
-24.88
-11.07
1.27
11.32
18.92
24.33
27.91
30.0
30.81
30.59
29.6
28.18
26.64
25.19
23.9
22.74
21.64
20.6
19.65
18.85
18.31
18.07
18.07
18.19
18.22
17.94
17.22
16.01
14.36
12.37
10.12
7.69
5.12
2.5
-0.09
-2.63
-5.18
-7.91
-10.98
-14.45
-18.17
-21.82
-25.07
-27.75
-29.95
-31.95
-34.13
-36.84
-40.29
-44.5
-49.28
-54.13
-58.26
-60.62
-60.16
-56.13
-48.39
-37.54
-24.75
-11.48
0.91
11.41
19.5
25.13
28.59
30.41
31.16
31.38
31.42
31.48
31.57
31.59
31.42
30.94
30.08
28.83
27.23
25.43
23.64
22.09
20.93
20.23
19.87
19.73
19.57
19.24
18.57
17.47
15.86
13.71
11.08
8.09
4.94
1.84
-1.12
-3.94
-6.77
-9.81
-13.19
-16.95
-20.88
-24.73
-28.23
-31.23
-33.77
-36.14
-38.77
-42.11
-46.46
-51.74
-57.3
-61.99
-64.41
-63.25
-57.83
-48.35
-35.85
-21.93
-8.25
3.88
13.71
21.05
26.11
29.29
31.08
31.91
32.18
32.19
32.09
31.93
31.65
31.11
30.21
28.89
27.22
25.36
23.59
22.15
21.21
20.79
20.73
20.81
20.73
20.27
19.32
17.91
16.18
14.24
12.16
9.93
7.47
4.77
1.92
-0.98
-3.8
-6.6
-9.52
-12.73
-16.29
-20.03
-23.67
-26.94
-29.77
-32.3
-34.85
-37.73
-41.17
-45.33
-50.23
-55.67
-61.1
-65.59
-67.86
-66.75
-61.6
-52.59
-40.75
-27.64
-14.82
-3.44
5.94
13.23
18.63
22.32
24.51
25.44
25.5
25.13
24.75
24.57
24.52
24.29
23.57
22.21
20.33
18.28
16.55
15.5
15.3
15.84
16.8
17.74
18.3
18.16
17.22
15.55
13.32
10.77
8.04
5.21
2.22
-1.02
-4.58
-8.43
-12.49
-16.6
-20.61
-24.41
-27.9
-31.08
-34.02
-36.96
-40.29
-44.41
-49.52
-55.31
-60.87
-64.76
-65.47
-61.89
-53.76
-41.78
-27.41
-12.4
1.66
13.67
23.07
29.76
33.97
36.11
36.72
36.42
35.83
35.41
35.35
35.52
35.57
35.11
33.92
32.08
29.98
28.05
26.66
25.9
25.62
25.55
25.41
25.0
24.22
22.98
21.22
18.89
16.03
12.8
9.42
6.07
2.75
-0.65
-4.39
-8.64
-13.45
-18.59
-23.71
-28.41
-32.46
-35.91
-39.14
-42.69
-47.12
-52.72
-59.27
-66.0
-71.62
-74.63
-73.7
-68.11
-57.95
-44.26
-28.7
-13.15
0.76
11.99
20.24
25.73
29.07
30.9
31.84
32.34
32.73
33.18
33.68
34.07
34.07
33.39
31.93
29.74
27.09
24.37
21.95
20.11
18.95
18.38
18.2
18.15
18.04
17.81
17.51
17.29
17.22
17.26
17.24
16.88
15.92
14.2
11.65
8.31
4.26
-0.41
-5.56
-11.0
-16.46
-21.63
-26.24
-30.19
-33.64
-37.01
-40.94
-45.96
-52.23
-59.18
-65.52
-69.44
-69.23
-63.9
-53.59
-39.57
-23.78
-8.23
5.64
17.17
26.4
33.76
39.66
44.4
48.17
51.16
53.61
55.77
57.75
59.5
60.73
61.1
60.36
58.47
55.74
52.67
49.82
47.56
45.97
44.79
43.58
41.89
39.45
36.25
32.46
28.34
24.11
19.89
15.69
11.46
7.1
2.48
-2.45
-7.67
-13.05
-18.34
-23.24
-27.49
-30.97
-33.79
-36.29
-38.97
-42.44
-47.14
-53.1
-59.71
-65.74
-69.56
-69.68
-65.18
-56.16
-43.64
-29.26
-14.81
-1.69
9.26
17.84
24.19
28.69
31.72
33.66
34.82
35.49
35.88
36.06
36.02
35.63
34.8
33.49
31.74
29.73
27.71
26.03
24.94
24.57
24.75
25.06
25.02
24.18
22.38
19.77
16.72
13.63
10.76
8.12
5.52
2.71
-0.54
-4.3
-8.51
-12.98
-17.48
-21.76
-25.64
-29.06
-32.08
-34.93
-37.94
-41.48
-45.88
-51.2
-57.13
-62.86
-67.13
-68.55
-65.99
-58.99
-47.99
-34.23
-19.39
-5.1
7.41
17.43
24.83
29.78
32.73
34.28
35.05
35.65
36.43
37.52
38.7
39.59
39.81
39.2
37.81
35.92
33.94
32.21
30.96
30.23
29.91
29.75
29.47
28.86
27.83
26.42
24.71
22.79
20.64
18.17
15.25
11.83
8.0
3.97
0.0
-3.71
-7.14
-10.42
-13.76
-17.3
-21.04
-24.78
-28.28
-31.31
-33.83
-35.99
-38.13
-40.66
-43.99
-48.33
-53.58
-59.12
-63.88
-66.48
-65.65
-60.67
-51.63
-39.47
-25.66
-11.8
0.83
11.44
19.72
25.73
29.72
32.07
33.22
33.68
33.89
34.19
34.67
35.18
35.48
35.28
34.44
33.01
31.25
29.48
28.09
27.3
27.17
27.56
28.14
28.54
28.43
27.67
26.31
24.56
22.71
20.98
19.49
18.16
16.8
15.18
13.09
10.42
7.17
3.54
-0.24
-3.87
-7.12
-9.94
-12.42
-14.79
-17.31
-20.16
-23.37
-26.8
-30.23
-33.45
-36.29
-38.75
-41.0
-43.39
-46.32
-50.14
-54.85
-59.93
-64.28
-66.42
-64.98
-59.17
-49.16
-36.05
-21.54
-7.35
5.22
15.5
23.41
29.16
33.02
35.24
36.11
35.97
35.24
34.32
33.45
32.7
31.96
31.03
29.77
28.17
26.33
24.5
22.91
21.73
21.0
20.6
20.33
19.91
19.18
18.07
16.62
14.89
12.96
10.84
8.51
5.97
3.22
0.32
-2.7
-5.83
-9.08
-12.48
-16.02
-19.65
-23.26
-26.72
-29.93
-32.8
-35.4
-37.95
-40.82
-44.36
-48.76
-53.82
-58.83
-62.67
-64.02
-61.83
-55.58
-45.56
-32.78
-18.69
-4.8
7.68
17.99
25.83
31.27
34.56
36.1
36.4
36.02
35.48
35.18
35.2
35.36
35.26
34.54
33.05
30.92
28.48
26.15
24.23
22.82
21.88
21.26
20.78
20.24
19.46
18.27
16.53
14.23
11.52
8.65
5.85
3.26
0.83
-1.56
-4.08
-6.77
-9.6
-12.52
-15.54
-18.76
-22.28
-26.1
-30.0
-33.64
-36.74
-39.27
-41.58
-44.31
-48.05
-53.04
-58.89
-64.56
-68.59
-69.54
-66.44
-59.11
-48.17
-34.88
-20.75
-7.21
4.7
14.39
21.66
26.68
29.78
31.45
32.25
32.7
33.18
33.8
34.45
34.86
34.73
33.92
32.47
30.6
28.63
26.88
25.53
24.62
24.03
23.59
23.11
22.51
21.81
21.06
20.26
19.34
18.1
16.32
13.85
10.68
7.01
3.13
-0.67
-4.24
-7.64
-11.05
-14.69
-18.65
-22.86
-27.11
-31.16
-34.87
-38.22
-41.37
-44.55
-48.11
-52.37
-57.49
-63.29
-69.12
-73.81
-75.96
-74.39
-68.52
-58.65
-45.92
-31.9
-18.24
-6.21
3.38
10.21
14.36
16.2
16.32
15.39
14.01
12.56
11.15
9.56
7.5
4.71
1.17
-2.97
-7.36
-11.68
-15.69
-19.25
-22.44
-25.51
-28.74
-32.39
-36.4
-40.22
-42.9
-43.33
-40.65
-34.71
-26.17
-16.23
-6.3
2.51
9.6
14.78
18.09
19.63
19.49
17.82
14.89
11.04
6.58
1.66
-3.73
-9.61
-15.88
-22.2
-27.86
-31.89
-33.2
-30.88
-24.57
-14.66
-2.35
10.65
22.63
32.48
39.92
45.4
49.67
53.32
56.47
58.94
60.46
61.0
60.78
60.17
59.47
58.76
57.89
56.66
54.99
52.98
50.89
49.03
47.59
46.52
45.6
44.5
42.96
40.92
38.51
36.01
33.67
31.61
29.82
28.16
26.45
24.47
22.05
19.01
15.31
11.1
6.69
2.5
-1.21
-4.44
-7.54
-11.03
-15.41
-20.9
-27.32
-34.14
-40.59
-45.72
-48.69
-48.82
-45.83
-39.86
-31.54
-21.85
-11.92
-2.77
4.86
10.68
14.8
17.65
19.82
21.91
24.41
27.57
31.45
35.9
40.57
44.98
48.54
50.75
51.27
50.11
47.58
44.18
40.36
36.31
31.94
27.0
21.36
15.12
8.7
2.64
-2.65
-6.94
-10.29
-12.84
-14.8
-16.36
-17.73
-19.15
-20.85
-22.93
-25.28
-27.61
-29.56
-30.84
-31.31
-30.92
-29.65
-27.43
-24.2
-19.95
-14.83
-9.14
-3.19
2.79
8.77
14.9
21.45
28.64
36.5
44.8
53.03
60.57
66.76
71.06
73.24
73.31
71.59
68.63
65.11
61.74
59.05
57.21
55.92
54.38
51.5
46.11
37.29
24.63
8.45
-10.15
-29.5
-47.66
-62.93
-74.24
-81.41
-84.93
-85.67
-84.44
-81.67
-77.53
-72.04
-65.52
-58.6
-52.24
-47.29
-44.21
-42.85
-42.57
-42.55
-42.1
-41.0
-39.49
-38.12
-37.38
-37.52
-38.39
-39.5
-40.2
-39.79
-37.7
-33.57
-27.27
-19.06
-9.49
0.59
10.25
18.66
25.28
29.94
32.83
34.37
35.0
35.1
34.87
34.34
33.46
32.08
30.07
27.37
24.1
20.54
17.2
14.66
13.51
14.1
16.38
19.89
23.9
27.56
30.27
31.84
32.43
32.36
31.81
30.64
28.41
24.65
19.11
12.04
4.12
-3.79
-10.93
-16.93
-21.91
-26.27
-30.49
-34.95
-39.81
-45.1
-50.63
-56.06
-60.73
-63.67
-63.79
-60.17
-52.54
-41.51
-28.54
-15.5
-4.08
4.7
10.7
14.41
16.66
18.19
19.47
20.72
22.01
23.34
24.69
25.95
26.93
27.4
27.15
26.17
24.68
23.08
21.84
21.36
21.79
23.0
24.61
26.06
26.85
26.6
25.21
22.87
19.97
16.99
14.27
11.92
9.78
7.53
4.85
1.61
-2.11
-6.04
-9.84
-13.26
-16.22
-18.78
-21.09
-23.34
-25.71
-28.4
-31.57
-35.3
-39.38
-43.17
-45.6
-45.36
-41.36
-33.15
-21.17
-6.73
8.38
22.49
34.45
43.89
51.04
56.52
60.98
64.94
68.73
72.56
76.58
80.85
85.3
89.71
93.72
96.98
99.36
101.05
102.53
104.31
106.55
108.76
109.82
108.45
103.84
96.1
86.31
76.09
66.88
59.42
53.62
48.78
44.08
38.84
32.55
24.77
15.07
3.16
-10.85
-26.25
-41.87
-56.43
-69.03
-79.42
-87.99
-95.44
-102.38
-109.11
-115.5
-121.14
-125.46
-127.87
-127.85
-125.04
-119.35
-111.04
-100.72
-89.17
-77.23
-65.62
-54.9
-45.46
-37.55
-31.26
-26.53
-23.09
-20.56
-18.57
-16.9
-15.5
-14.47
-13.95
-13.95
-14.34
-14.85
-15.17
-15.1
-14.58
-13.74
-12.79
-11.96
-11.37
-11.05
-11.01
-11.29
-12.0
-13.3
-15.27
-17.95
-21.21
-24.85
-28.6
-32.18
-35.36
-38.06
-40.35
-42.49
-44.83
-47.73
-51.37
-55.71
-60.4
-64.78
-68.03
-69.31
-67.99
-63.83
-57.07
-48.36
-38.56
-28.46
-18.61
-9.29
-0.61
7.32
14.41
20.55
25.74
30.09
33.87
37.41
41.11
45.32
50.29
56.18
62.88
69.96
76.53
81.33
83.01
80.58
73.84
63.47
50.8
37.39
24.5
12.76
2.19
-7.69
-17.63
-28.41
-40.68
-54.73
-70.21
-85.91
-99.93
-110.06
-114.56
-112.76
-105.22
-93.51
-79.62
-65.58
-53.03
-42.99
-35.54
-29.61
-23.16
-13.81
0.05
18.46
39.53
60.28
77.79
90.36
97.97
101.76
103.21
103.4
102.91
102.06
101.32
101.32
102.6
105.07
107.88
109.64
108.93
104.87
97.49
87.59
76.51
65.46
55.11
45.24
34.9
22.94
8.69
-7.54
-24.55
-40.68
-54.59
-65.8
-74.8
-82.63
-90.2
-97.74
-104.72
-110.21
-113.43
-114.33
-113.68
-112.83
-113.18
-115.6
-120.14
-125.93
-131.42
-134.82
-134.52
-129.51
-119.69
-105.92
-89.88
-73.68
-59.36
-48.29
-40.91
-36.66
-34.23
-32.17
-29.26
-25.01
-19.6
-13.73
-8.28
-3.96
-1.15
0.13
0.16
-0.61
-1.57
-2.1
-1.6
0.25
3.39
7.34
11.29
14.45
16.3
16.85
16.53
16.0
15.74
15.78
15.66
14.58
11.74
6.64
-0.7
-9.81
-19.89
-30.14
-39.97
-49.15
-57.91
-66.67
-75.86
-85.42
-94.57
-101.71
-104.81
-102.04
-92.55
-76.89
-56.96
-35.4
-14.82
2.98
17.24
28.1
36.22
42.24
46.62
49.58
51.23
51.68
51.12
49.82
48.07
46.16
44.34
42.81
41.67
40.9
40.27
39.39
37.74
34.91
30.74
25.38
19.24
12.77
6.33
0.09
-5.89
-11.56
-16.87
-21.76
-26.24
-30.55
-35.19
-40.85
-48.35
-58.38
-71.2
-86.4
-102.71
-118.03
-129.74
-135.1
-131.85
-118.76
-96.12
-65.99
-31.93
1.76
31.3
54.58
71.64
84.28
94.86
105.09
115.31
124.79
132.38
137.38
139.82
140.13
138.69
135.51
130.36
123.24
114.69
105.78
97.76
91.61
87.69
85.67
84.78
84.04
82.63
80.14
76.58
72.32
67.81
63.44
59.35
55.5
51.8
48.16
44.53
40.74
36.38
30.8
23.17
12.82
-0.49
-16.25
-33.2
-49.48
-63.02
-71.97
-75.19
-72.44
-64.51
-52.94
-39.69
-26.7
-15.43
-6.64
-0.33
4.08
7.48
10.77
14.65
19.5
25.32
31.73
38.1
43.68
47.84
50.28
51.1
50.8
49.92
48.83
47.55
45.93
44.01
42.59
43.34
48.64
60.69
80.47
106.8
136.21
163.58
183.66
192.57
188.84
173.53
149.62
121.0
91.5
64.17
40.97
22.51
8.17
-3.7
-15.23
-28.34
-44.09
-62.41
-82.13
-101.44
-118.4
-131.3
-138.95
-140.79
-137.02
-128.44
-116.34
-102.2
-87.38
-72.89
-59.31
-46.94
-36.08
-27.24
-21.01
-17.58
-16.2
-15.07
-11.87
-5.09
4.9
15.6
23.56
26.27
23.65
18.17
13.33
11.56
12.91
15.21
15.56
12.11
4.94
-4.28
-13.43
-21.08
-26.89
-31.19
-34.44
-36.77
-38.2
-38.96
-39.74
-41.65
-45.89
-53.45
-64.97
-80.73
-100.72
-124.62
-151.64
-180.31
-208.41
-233.31
-252.53
-264.36
-268.05
-263.73
-252.05
-233.98
-210.86
-184.59
-157.6
-132.49
-111.39
-95.5
-84.97
-79.24
-77.59
-79.35
-83.73
-89.48
-94.61
-96.46
-92.4
-80.53
-60.42
-33.35
-2.06
29.76
58.24
80.03
92.89
96.17
91.06
80.55
68.88
60.33
57.67
60.92
67.09
71.32
68.97
57.64
38.1
13.73
-11.25
-33.47
-51.23
-64.1
-72.12
-75.06
-72.52
-64.34
-51.16
-34.19
-14.68
6.57
29.17
52.75
76.46
98.8
118.03
132.69
142.12
146.45
146.38
142.92
137.17
130.26
123.31
117.18
112.31
108.6
105.56
102.62
99.36
95.63
91.38
86.51
80.82
74.1
66.39
58.1
50.0
42.94
37.63
34.43
33.37
34.1
36.0
38.28
40.09
40.66
39.56
36.74
32.59
27.67
22.55
17.65
13.15
9.1
5.41
1.78
-2.33
-7.57
-14.38
-22.68
-31.59
-39.72
-45.57
-48.08
-46.79
-41.97
-34.42
-25.16
-15.26
-5.56
3.46
11.87
20.06
28.41
36.84
44.64
50.78
54.58
56.3
57.13
58.63
61.82
66.56
71.68
75.66
77.46
76.95
74.81
72.04
69.5
67.7
67.07
68.04
71.03
75.96
81.82
86.63
88.15
85.0
77.62
68.54
61.63
60.54
67.27
81.37
100.02
118.92
133.45
139.8
135.75
121.22
98.33
70.92
43.35
19.3
0.75
-12.01
-19.89
-24.17
-26.03
-26.63
-27.38
-29.88
-35.39
-44.02
-54.29
-63.53
-68.92
-68.83
-63.43
-54.48
-44.43
-35.43
-28.57
-23.85
-20.63
-18.01
-15.28
-11.96
-7.67
-2.06
5.07
13.47
22.28
30.16
35.84
38.9
40.29
42.26
47.73
59.22
77.95
103.26
132.54
161.67
185.78
200.22
201.71
189.23
164.29
130.47
92.27
53.77
17.66
-15.24
-45.77
-75.92
-108.06
-143.65
-181.97
-219.14
-248.43
-262.13
-254.45
-224.09
-175.18
-115.8
-54.99
0.25
46.29
82.48
109.35
127.17
135.7
134.84
125.5
109.67
89.78
67.76
44.7
21.24
-1.84
-23.12
-40.83
-53.51
-60.68
-63.21
-62.96
-62.03
-61.87
-62.64
-63.15
-61.5
-56.11
-46.82
-35.37
-25.12
-20.04
-23.35
-36.66
-59.75
-91.04
-127.91
-166.96
-204.24
-235.71
-258.01
-269.46
-270.6
-263.81
-252.51
-239.72
-227.13
-215.0
-202.61
-189.02
-173.66
-156.25
-136.49
-114.06
-88.94
-62.11
-35.75
-12.67
4.78
15.61
20.63
22.05
22.54
24.35
28.89
36.87
48.73
64.95
85.74
110.51
137.39
163.37
185.2
200.49
208.57
210.79
209.66
207.59
205.48
202.01
194.26
179.35
156.23
126.59
94.11
62.45
33.66
7.63
-16.83
-40.31
-61.73
-78.69
-88.73
-90.99
-86.9
-79.71
-72.7
-67.58
-63.65
-58.18
-47.76
-29.93
-4.12
28.26
64.52
101.67
137.06
168.29
192.84
207.7
209.75
196.74
168.69
128.58
81.95
35.39
-5.17
-35.86
-55.27
-63.98
-63.78
-56.97
-45.91
-32.95
-20.32
-10.0
-3.51
-1.78
-4.93
-12.32
-22.57
-33.91
-44.59
-53.41
-59.96
-64.68
-68.36
-71.53
-74.06
-74.98
-72.92
-66.77
-56.24
-42.09
-25.93
-9.67
5.04
17.12
26.24
32.49
36.27
37.99
37.98
36.47
33.58
29.41
24.02
17.49
9.97
1.63
-7.26
-16.25
-24.69
-31.67
-36.33
-38.11
-37.05
-33.87
-29.6
-25.18
-21.12
-17.45
-14.05
-10.87
-8.12
-6.13
-5.05
-4.69
-4.48
-3.87
-2.49
-0.42
1.94
4.1
5.79
7.06
8.1
8.97
9.27
8.23
4.96
-0.86
-8.56
-16.5
-22.58
-25.07
-23.32
-17.95
-10.46
-2.6
4.22
9.19
11.98
12.54
10.98
7.46
2.39
-3.69
-10.04
-15.98
-20.88
-24.33
-26.21
-26.66
-26.1
-24.99
-23.67
-22.27
-20.7
-18.78
-16.43
-13.79
-11.25
-9.32
-8.4
-8.64
-9.75
-11.2
-12.4
-12.95
-12.86
-12.43
-12.09
-12.12
-12.56
-13.21
-13.78
-14.09
-14.09
-13.9
-13.72
-13.79
-14.38
-15.68
-17.73
-20.28
-22.89
-25.13
-26.76
-27.98
-29.22
-30.96
-33.44
-36.48
-39.61
-42.3
-44.11
-44.8
-44.29
-42.56
-39.71
-36.01
-31.88
-27.87
-24.44
-21.85
-20.0
-18.55
-17.1
-15.4
-13.39
-11.09
-8.42
-5.2
-1.18
3.7
9.16
14.69
19.67
23.69
26.8
29.41
32.14
35.48
39.55
44.0
48.15
51.23
52.58
51.83
49.03
44.6
39.38
34.4
30.63
28.65
28.37
28.88
28.61
25.82
19.27
8.86
-4.09
-17.16
-27.49
-32.76
-31.72
-24.48
-12.25
3.07
19.25
34.27
46.56
55.39
61.08
64.97
68.82
74.15
81.45
89.89
97.53
101.74
99.76
89.08
68.07
36.64
-3.04
-46.13
-85.87
-115.23
-129.12
-126.27
-109.77
-85.84
-61.63
-42.95
-32.7
-30.85
-35.52
-44.35
-55.4
-67.09
-77.55
-83.94
-82.76
-71.34
-49.9
-22.88
2.06
16.98
17.57
5.42
-12.56
-27.69
-33.83
-30.24
-21.12
-12.52
-8.51
-9.05
-10.69
-9.23
-2.46
8.79
21.54
32.93
42.05
50.1
59.27
70.99
84.55
97.19
105.29
106.0
98.51
84.33
66.36
47.74
30.54
15.35
1.55
-11.74
-24.77
-36.65
-45.68
-50.27
-49.94
-45.88
-40.65
-37.13
-37.26
-41.27
-47.75
-54.43
-59.2
-60.85
-59.24
-54.97
-48.85
-41.55
-33.51
-25.01
-16.36
-8.06
-0.74
4.87
8.18
8.89
7.14
3.46
-1.38
-6.68
-12.03
-17.34
-22.6
-27.68
-32.11
-35.16
-36.09
-34.37
-29.8
-22.43
-12.53
-0.61
12.51
25.73
37.82
47.84
55.45
60.98
65.24
69.02
72.64
75.85
77.9
77.97
75.35
69.63
60.75
49.1
35.58
21.65
9.11
-0.32
-5.42
-5.93
-2.61
2.88
8.41
12.03
12.56
9.98
5.44
0.68
-2.69
-3.95
-3.5
-2.46
-1.98
-2.62
-4.21
-6.18
-8.12
-10.26
-13.25
-17.59
-23.15
-28.97
-33.66
-36.04
-35.83
-33.68
-30.9
-28.89
-28.56
-30.08
-32.98
-36.48
-39.89
-42.83
-45.35
-47.77
-50.45
-53.57
-56.88
-59.75
-61.36
-60.92
-58.01
-52.68
-45.27
-36.18
-25.68
-13.85
-0.76
13.27
27.54
41.03
52.64
61.51
67.24
69.98
70.26
68.86
66.5
63.63
60.32
56.35
51.34
45.01
37.39
28.86
20.09
11.81
4.62
-1.15
-5.48
-8.68
-11.24
-13.71
-16.55
-20.04
-24.22
-28.84
-33.53
-37.92
-41.83
-45.31
-48.6
-51.9
-55.12
-57.77
-58.96
-57.73
-53.36
-45.73
-35.39
-23.39
-10.99
0.71
11.05
19.91
27.57
34.53
41.25
47.9
54.34
60.15
64.82
67.93
69.24
68.72
66.63
63.45
59.77
56.23
53.19
50.58
47.81
44.08
38.65
31.25
22.21
12.36
2.83
-5.4
-11.6
-15.43
-16.84
-16.06
-13.55
-9.99
-6.34
-3.61
-2.76
-4.42
-8.62
-14.69
-21.29
-26.79
-29.76
-29.34
-25.51
-18.97
-10.89
-2.43
5.49
12.29
17.76
21.92
24.91
26.86
27.92
28.22
27.84
26.95
25.65
24.02
22.1
19.89
17.52
15.27
13.54
12.73
13.01
14.1
15.39
16.08
15.57
13.69
10.73
7.33
4.08
1.37
-0.76
-2.46
-3.93
-5.21
-6.19
-6.67
-6.48
-5.54
-3.85
-1.42
1.75
5.58
9.85
14.15
17.9
20.53
21.61
21.03
18.9
15.45
10.82
5.11
-1.63
-9.12
-16.83
-24.02
-29.88
-33.67
-34.82
-32.93
-27.8
-19.53
-8.75
3.35
15.12
24.89
31.53
34.86
35.67
35.37
35.17
35.62
36.32
36.23
34.21
29.64
22.67
14.13
5.13
-3.33
-10.65
-16.64
-21.41
-25.16
-28.1
-30.44
-32.36
-34.01
-35.34
-36.1
-35.81
-34.07
-30.83
-26.58
-22.18
-18.55
-16.21
-15.05
-14.5
-13.92
-12.94
-11.62
-10.19
-8.58
-6.28
-2.51
3.29
10.89
19.25
26.71
31.63
32.88
30.17
24.12
16.19
8.46
3.29
2.64
7.29
16.16
26.34
34.08
36.35
32.36
24.01
15.06
9.34
8.94
13.48
20.66
27.66
32.57
35.13
36.26
37.14
38.43
39.83
40.47
39.43
36.19
30.75
23.71
15.96
8.46
1.82
-3.94
-9.49
-16.13
-25.73
-40.56
-63.06
-94.92
-135.85
-182.28
-227.04
-260.56
-273.77
-261.37
-224.19
-169.09
-106.59
-47.13
1.91
37.19
58.57
67.35
65.13
53.92
36.89
18.65
4.41
-1.89
0.6
9.19
18.65
23.68
21.09
10.88
-4.43
-21.41
-37.4
-51.31
-63.59
-75.42
-87.85
-101.22
-114.75
-126.63
-134.24
-134.82
-126.26
-107.74
-80.14
-45.69
-7.38
31.76
69.11
102.64
130.76
152.35
166.83
174.2
175.05
170.28
160.97
148.13
132.82
116.22
99.61
84.27
71.17
60.85
53.28
48.06
44.54
42.01
39.84
37.52
34.76
31.53
28.08
24.68
21.46
18.24
14.53
9.78
3.63
-3.91
-12.44
-21.41
-30.26
-38.49
-45.67
-51.3
-54.81
-55.77
-53.96
-49.59
-43.23
-35.64
-27.63
-19.96
-13.34
-8.43
-5.69
-5.33
-7.11
-10.4
-14.35
-18.15
-21.24
-23.41
-24.94
-26.45
-28.88
-33.16
-39.85
-48.78
-58.95
-68.83
-76.95
-82.5
-85.57
-86.91
-87.31
-87.05
-85.68
-82.39
-76.57
-68.35
-58.56
-48.38
-38.72
-29.85
-21.5
-13.24
-4.95
3.15
10.68
17.61
24.47
32.33
42.22
54.62
69.16
84.68
99.75
113.16
124.28
133.01
139.5
143.85
145.93
145.44
142.2
136.27
128.05
118.08
106.76
94.28
80.62
65.89
50.58
35.6
22.05
10.8
2.14
-4.31
-9.34
-13.82
-18.34
-23.11
-28.18
-33.48
-38.92
-44.27
-49.11
-52.89
-55.23
-56.14
-56.19
-56.23
-57.03
-58.73
-60.71
-61.76
-60.55
-56.12
-48.27
-37.59
-25.21
-12.47
-0.56
9.64
17.55
22.96
25.88
26.6
25.74
24.12
22.66
22.12
22.78
24.47
26.65
28.71
30.4
31.9
33.72
36.37
40.0
44.35
48.84
52.87
56.03
58.18
59.35
59.6
58.87
57.11
54.28
50.44
45.69
40.1
33.62
26.14
17.63
8.38
-0.92
-9.27
-15.6
-19.12
-19.6
-17.42
-13.44
-8.72
-4.34
-1.22
-0.13
-1.75
-6.53
-14.64
-25.73
-38.94
-52.99
-66.56
-78.64
-88.71
-96.82
-103.33
-108.66
-113.06
-116.56
-119.13
-120.8
-121.81
-122.63
-123.7
-125.27
-127.23
-129.08
-130.11
-129.64
-127.27
-123.06
-117.5
-111.46
-105.95
-101.93
-100.07
-100.56
-102.99
-106.37
-109.25
-109.89
-106.49
-97.46
-81.72
-58.94
-29.8
3.99
39.92
75.04
106.49
131.76
148.96
156.88
155.19
144.7
127.5
106.77
86.08
68.44
55.47
47.09
42.02
38.63
35.67
32.67
29.76
27.29
25.63
25.18
26.47
30.05
36.13
44.14
52.52
59.16
62.16
60.58
54.86
46.51
37.33
28.75
21.49
15.63
11.14
8.14
7.01
8.09
11.36
16.24
21.77
26.92
30.95
33.65
35.2
36.01
36.45
36.67
36.63
36.21
35.35
34.08
32.54
30.85
29.03
27.08
24.95
22.69
20.39
18.16
16.02
13.91
11.69
9.25
6.63
3.95
1.37
-0.98
-3.09
-5.05
-6.99
-9.09
-11.46
-14.1
-16.82
-19.15
-20.38
-19.72
-16.66
-11.16
-3.79
4.36
12.14
18.61
23.42
26.66
28.72
29.91
30.4
30.13
29.06
27.24
24.85
22.13
19.25
16.25
13.1
9.79
6.41
3.18
0.32
-1.94
-3.55
-4.54
-5.01
-5.14
-5.1
-5.12
-5.4
-6.09
-7.29
-8.91
-10.88
-13.07
-15.48
-18.18
-21.23
-24.49
-27.55
-29.68
-30.04
-27.95
-23.15
-15.96
-7.16
2.25
11.3
19.31
25.92
31.04
34.65
36.75
37.37
36.64
34.88
32.53
30.05
27.67
25.39
23.05
20.46
17.58
14.52
11.52
8.76
6.34
4.22
2.3
0.5
-1.23
-2.93
-4.62
-6.33
-8.1
-9.94
-11.91
-14.07
-16.5
-19.26
-22.37
-25.8
-29.45
-33.14
-36.5
-38.99
-39.93
-38.71
-35.02
-29.08
-21.62
-13.73
-6.5
-0.7
3.41
6.01
7.5
8.27
8.59
8.62
8.48
8.27
8.1
8.03
7.99
7.82
7.31
6.42
5.28
4.18
3.46
3.34
3.8
4.63
5.54
6.26
6.57
6.31
5.41
3.8
1.53
-1.21
-4.17
-7.01
-9.48
-11.53
-13.25
-14.93
-16.89
-19.39
-22.54
-26.16
-29.77
-32.54
-33.59
-32.21
-28.13
-21.77
-14.03
-6.0
1.34
7.4
12.02
15.34
17.58
19.01
19.79
20.04
19.93
19.58
19.11
18.57
17.95
17.14
16.04
14.56
12.76
10.79
8.88
7.28
6.09
5.32
4.79
4.29
3.58
2.49
0.95
-1.04
-3.37
-5.84
-8.18
-10.14
-11.61
-12.65
-13.5
-14.49
-15.98
-18.15
-21.01
-24.25
-27.34
-29.53
-30.01
-28.23
-24.05
-17.91
-10.74
-3.63
2.46
7.03
10.07
11.9
12.91
13.37
13.36
12.9
12.0
10.81
9.5
8.21
7.01
5.85
4.63
3.28
1.77
0.21
-1.21
-2.25
-2.73
-2.64
-2.12
-1.51
-1.18
-1.36
-2.11
-3.31
-4.67
-6.01
-7.2
-8.26
-9.27
-10.32
-11.51
-12.92
-14.65
-16.76
-19.11
-21.34
-22.83
-22.92
-21.08
-17.17
-11.56
-4.98
1.64
7.48
12.0
15.0
16.56
16.95
16.44
15.29
13.73
11.97
10.19
8.54
7.12
5.92
4.87
3.84
2.73
1.53
0.34
-0.66
-1.3
-1.44
-1.14
-0.54
0.08
0.39
0.14
-0.8
-2.34
-4.26
-6.24
-8.04
-9.52
-10.66
-11.59
-12.54
-13.75
-15.38
-17.46
-19.75
-21.73
-22.76
-22.28
-20.0
-16.03
-10.86
-5.17
0.39
5.3
9.26
12.12
13.87
14.58
14.42
13.59
12.34
10.84
9.24
7.67
6.24
5.04
4.1
3.31
2.53
1.62
0.57
-0.43
-1.11
-1.3
-1.03
-0.63
-0.54
-1.18
-2.7
-4.93
-7.51
-10.08
-12.42
-14.49
-16.44
-18.5
-20.87
-23.77
-27.26
-31.22
-35.25
-38.68
-40.64
-40.36
-37.45
-32.03
-24.76
-16.56
-8.37
-0.9
5.41
10.4
14.07
16.54
18.02
18.79
19.14
19.32
19.45
19.48
19.23
18.48
17.02
14.86
12.15
9.24
6.57
4.52
3.28
2.78
2.68
2.52
1.89
0.56
-1.45
-3.86
-6.38
-8.73
-10.83
-12.82
-14.96
-17.58
-20.96
-25.23
-30.25
-35.56
-40.33
-43.54
-44.19
-41.69
-36.03
-27.93
-18.55
-9.14
-0.71
6.2
11.49
15.35
17.99
19.65
20.51
20.82
20.83
20.76
20.7
20.53
20.03
19.01
17.4
15.35
13.14
11.09
9.46
8.38
7.86
7.78
7.9
7.84
7.22
5.71
3.19
-0.18
-4.06
-8.03
-11.74
-15.08
-18.12
-21.16
-24.58
-28.73
-33.69
-39.17
-44.39
-48.25
-49.61
-47.75
-42.55
-34.65
-25.16
-15.26
-5.92
2.31
9.25
14.94
19.44
22.84
25.25
26.84
27.82
28.36
28.52
28.23
27.35
25.81
23.71
21.3
18.95
16.99
15.6
14.79
14.41
14.24
14.05
13.63
12.85
11.61
9.88
7.61
4.83
1.56
-2.12
-6.04
-9.99
-13.81
-17.46
-21.09
-25.07
-29.76
-35.36
-41.67
-47.98
-53.17
-56.06
-55.7
-51.66
-44.23
-34.22
-22.75
-10.97
0.13
9.87
17.87
24.01
28.36
31.15
32.69
33.25
33.06
32.25
30.89
29.03
26.78
24.29
21.73
19.28
17.05
15.2
13.84
13.11
13.0
13.37
13.86
14.02
13.43
11.81
9.12
5.55
1.42
-2.96
-7.33
-11.55
-15.61
-19.63
-23.83
-28.56
-34.1
-40.49
-47.36
-53.84
-58.65
-60.46
-58.28
-51.84
-41.7
-29.08
-15.51
-2.36
9.37
19.19
26.99
32.95
37.3
40.37
42.41
43.67
44.28
44.28
43.6
42.21
40.18
37.65
34.9
32.18
29.73
27.66
26.0
24.65
23.49
22.39
21.24
19.91
18.32
16.34
13.81
10.63
6.74
2.2
-2.8
-8.01
-13.15
-18.04
-22.59
-26.97
-31.44
-36.39
-42.13
-48.63
-55.39
-61.36
-65.17
-65.5
-61.52
-53.25
-41.51
-27.75
-13.56
-0.31
11.13
20.44
27.72
33.28
37.49
40.64
42.94
44.51
45.41
45.66
45.22
44.06
42.14
39.59
36.65
33.77
31.42
29.96
29.45
29.62
29.99
30.04
29.44
28.17
26.37
24.24
21.86
19.13
15.83
11.82
7.06
1.75
-3.84
-9.39
-14.66
-19.55
-24.13
-28.61
-33.34
-38.74
-45.09
-52.3
-59.79
-66.44
-70.84
-71.68
-68.15
-60.2
-48.53
-34.4
-19.26
-4.51
8.79
19.93
28.63
34.98
39.35
42.26
44.22
45.65
46.71
47.41
47.6
47.12
45.85
43.79
41.12
38.15
35.29
32.96
31.48
30.98
31.36
32.26
33.22
33.71
33.37
32.0
29.64
26.54
23.02
19.38
15.8
12.29
8.73
4.88
0.56
-4.26
-9.4
-14.55
-19.34
-23.56
-27.25
-30.7
-34.42
-38.9
-44.45
-50.99
-57.96
-64.34
-68.87
-70.27
-67.6
-60.61
-49.77
-36.22
-21.46
-7.02
5.95
16.74
25.18
31.44
35.86
38.89
40.89
42.17
42.9
43.19
43.02
42.34
41.1
39.36
37.26
35.02
32.95
31.3
30.29
30.07
30.57
31.62
32.84
33.73
33.83
32.81
30.64
27.58
24.06
20.49
17.11
13.91
10.7
7.18
3.17
-1.37
-6.31
-11.37
-16.28
-20.84
-24.97
-28.7
-32.2
-35.76
-39.74
-44.46
-50.11
-56.51
-62.96
-68.25
-70.96
-69.84
-64.24
-54.41
-41.38
-26.69
-11.92
1.67
13.24
22.42
29.17
33.69
36.36
37.63
37.94
37.62
36.84
35.6
33.86
31.65
29.04
26.27
23.6
21.4
19.99
19.59
20.22
21.59
23.18
24.4
24.79
24.15
22.56
20.29
17.59
14.6
11.35
7.75
3.75
-0.65
-5.37
-10.3
-15.25
-20.05
-24.58
-28.8
-32.88
-37.18
-42.1
-47.89
-54.41
-60.97
-66.42
-69.43
-68.79
-63.9
-54.86
-42.51
-28.15
-13.26
0.87
13.28
23.46
31.3
36.97
40.79
43.18
44.56
45.23
45.36
44.97
43.94
42.23
39.88
37.17
34.51
32.3
30.82
30.09
29.91
29.94
29.78
29.16
27.91
26.04
23.66
20.97
18.12
15.17
12.03
8.47
4.28
-0.61
-6.09
-11.88
-17.62
-23.04
-28.04
-32.73
-37.43
-42.51
-48.3
-54.91
-62.1
-69.13
-74.8
-77.69
-76.52
-70.56
-59.98
-45.79
-29.67
-13.42
1.47
14.05
24.02
31.52
36.92
40.61
42.92
44.11
44.45
44.16
43.38
42.18
40.54
38.44
35.96
33.28
30.72
28.65
27.37
26.96
27.25
27.87
28.27
28.01
26.81
24.69
21.91
18.78
15.49
12.04
8.23
3.87
-1.13
-6.58
-12.12
-17.36
-22.08
-26.31
-30.38
-34.7
-39.69
-45.59
-52.37
-59.68
-66.75
-72.45
-75.49
-74.66
-69.23
-59.25
-45.64
-29.97
-14.06
0.53
12.84
22.51
29.71
34.85
38.37
40.66
42.07
42.93
43.48
43.87
44.04
43.77
42.82
41.09
38.67
35.95
33.42
31.55
30.62
30.61
31.2
31.85
31.96
31.08
29.06
26.03
22.37
18.53
14.78
11.19
7.58
3.66
-0.78
-5.78
-11.18
-16.68
-21.98
-26.84
-31.25
-35.4
-39.71
-44.68
-50.67
-57.75
-65.42
-72.61
-77.83
-79.54
-76.59
-68.61
-56.18
-40.65
-23.8
-7.36
7.34
19.53
28.98
35.84
40.48
43.37
44.99
45.81
46.18
46.31
46.24
45.81
44.79
43.02
40.52
37.52
34.44
31.77
29.88
28.98
28.98
29.58
30.28
30.58
30.07
28.58
26.15
23.04
19.58
16.03
12.45
8.67
4.46
-0.36
-5.78
-11.52
-17.17
-22.36
-26.86
-30.73
-34.25
-37.87
-42.1
-47.35
-53.73
-60.9
-67.95
-73.48
-75.92
-73.98
-67.09
-55.61
-40.77
-24.26
-7.92
6.79
18.92
28.06
34.36
38.25
40.35
41.26
41.49
41.34
41.0
40.5
39.76
38.64
36.99
34.73
32.02
29.27
27.04
25.84
25.91
27.04
28.68
30.08
30.65
30.03
28.26
25.6
22.4
18.91
15.27
11.46
7.35
2.82
-2.2
-7.64
-13.3
-18.87
-23.98
-28.41
-32.16
-35.52
-39.04
-43.36
-48.93
-55.78
-63.2
-69.87
-74.09
-74.32
-69.63
-60.13
-46.85
-31.47
-15.76
-1.14
11.52
21.91
30.02
35.99
40.01
42.27
43.1
42.89
42.08
40.98
39.74
38.25
36.35
33.9
30.98
27.96
25.34
23.63
23.07
23.53
24.56
25.55
25.94
25.45
24.08
22.02
19.5
16.63
13.39
9.67
5.38
0.55
-4.68
-10.08
-15.42
-20.5
-25.23
-29.65
-33.94
-38.42
-43.48
-49.4
-56.12
-63.1
-69.2
-72.97
-73.05
-68.58
-59.54
-46.81
-31.86
-16.4
-1.93
10.52
20.43
27.77
32.79
35.95
37.76
38.71
39.27
39.69
40.08
40.33
40.17
39.36
37.77
35.49
32.88
30.43
28.58
27.55
27.28
27.45
27.61
27.33
26.38
24.73
22.5
19.93
17.19
14.3
11.16
7.55
3.31
-1.54
-6.77
-12.06
-17.11
-21.78
-26.13
-30.36
-34.75
-39.62
-45.2
-51.56
-58.45
-65.1
-70.28
-72.52
-70.57
-63.89
-52.9
-38.88
-23.59
-8.76
4.31
14.95
23.06
28.9
32.95
35.69
37.57
38.9
39.9
40.61
41.02
41.03
40.5
39.29
37.3
34.57
31.38
28.2
25.63
24.12
23.77
24.28
25.04
25.38
24.88
23.47
21.36
18.9
16.29
13.52
10.41
6.72
2.37
-2.58
-7.84
-13.12
-18.12
-22.69
-26.82
-30.68
-34.49
-38.57
-43.27
-48.79
-55.09
-61.69
-67.55
-71.29
-71.46
-67.07
-57.99
-45.09
-29.98
-14.59
-0.54
11.2
20.34
27.12
31.98
35.34
37.54
38.87
39.59
39.95
40.13
40.1
39.66
38.55
36.58
33.82
30.63
27.55
25.11
23.69
23.34
23.84
24.75
25.54
25.76
25.16
23.68
21.48
18.83
15.97
13.05
10.04
6.8
3.13
-1.07
-5.73
-10.67
-15.61
-20.29
-24.52
-28.23
-31.53
-34.72
-38.23
-42.5
-47.81
-54.01
-60.41
-65.8
-68.71
-67.89
-62.64
-53.13
-40.35
-25.84
-11.25
1.99
13.0
21.42
27.36
31.23
33.54
34.78
35.35
35.51
35.36
34.9
34.12
32.95
31.39
29.47
27.23
24.8
22.39
20.3
18.88
18.4
18.87
20.0
21.19
21.76
21.21
19.41
16.67
13.47
10.26
7.14
3.92
0.25
-4.09
-9.0
-14.14
-19.06
-23.45
-27.28
-30.76
-34.15
-37.8
-41.92
-46.69
-52.03
-57.51
-62.29
-65.14
-64.77
-60.27
-51.48
-39.15
-24.72
-9.95
3.62
14.95
23.6
29.63
33.41
35.39
36.07
35.91
35.24
34.34
33.31
32.08
30.54
28.59
26.25
23.71
21.29
19.31
18.0
17.42
17.44
17.76
18.04
17.93
17.23
15.85
13.85
11.4
8.61
5.51
2.05
-1.85
-6.2
-10.86
-15.55
-20.02
-24.1
-27.81
-31.38
-35.09
-39.29
-44.2
-49.75
-55.51
-60.55
-63.59
-63.37
-59.04
-50.5
-38.55
-24.59
-10.29
2.88
13.94
22.42
28.3
31.87
33.61
34.06
33.78
33.22
32.65
32.1
31.45
30.49
29.05
27.09
24.72
22.2
19.87
18.06
16.96
16.56
16.61
16.71
16.48
15.64
14.19
12.33
10.3
8.26
6.14
3.67
0.56
-3.31
-7.8
-12.52
-17.03
-21.01
-24.39
-27.36
-30.27
-33.51
-37.45
-42.28
-47.96
-54.02
-59.57
-63.34
-64.03
-60.71
-53.16
-42.05
-28.76
-14.88
-1.89
9.24
18.08
24.63
29.09
31.8
33.15
33.53
33.37
33.04
32.78
32.61
32.37
31.72
30.4
28.3
25.62
22.84
20.5
19.06
18.63
18.93
19.46
19.65
19.14
17.85
15.96
13.74
11.36
8.85
6.14
3.12
-0.31
-4.17
-8.38
-12.84
-17.38
-21.79
-25.86
-29.41
-32.41
-35.06
-37.77
-41.07
-45.36
-50.55
-55.97
-60.33
-62.1
-60.07
-53.78
-43.7
-31.08
-17.5
-4.41
7.17
16.7
23.98
29.02
31.99
33.27
33.39
32.97
32.51
32.22
32.03
31.66
30.83
29.38
27.35
24.97
22.58
20.52
19.12
18.53
18.73
19.44
20.18
20.42
19.79
18.18
15.82
13.13
10.49
8.01
5.5
2.58
-1.08
-5.55
-10.55
-15.57
-20.15
-24.06
-27.36
-30.36
-33.43
-36.89
-40.95
-45.71
-51.02
-56.36
-60.77
-62.98
-61.68
-56.12
-46.38
-33.55
-19.35
-5.59
6.3
15.67
22.51
27.24
30.37
32.27
33.19
33.26
32.65
31.58
30.25
28.77
27.14
25.21
22.9
20.29
17.64
15.42
14.03
13.62
14.04
14.81
15.41
15.45
14.82
13.63
12.09
10.32
8.21
5.54
2.09
-2.16
-7.02
-12.11
-17.03
-21.54
-25.58
-29.34
-33.13
-37.27
-41.98
-47.28
-52.83
-57.87
-61.34
-62.04
-59.09
-52.16
-41.74
-28.97
-15.34
-2.27
9.16
18.34
25.15
29.74
32.5
33.91
34.44
34.51
34.32
33.93
33.22
32.02
30.21
27.86
25.14
22.36
19.84
17.82
16.39
15.53
15.07
14.79
14.47
13.95
13.11
11.88
10.19
7.98
5.13
1.6
-2.57
-7.21
-11.99
-16.55
-20.61
-24.14
-27.33
-30.61
-34.45
-39.15
-44.75
-50.88
-56.77
-61.27
-63.15
-61.38
-55.46
-45.7
-33.12
-19.25
-5.7
6.26
15.91
23.12
28.2
31.6
33.8
35.15
35.87
36.11
35.92
35.31
34.25
32.7
30.65
28.17
25.46
22.78
20.45
18.73
17.68
17.2
17.01
16.81
16.32
15.41
14.02
12.11
9.67
6.63
3.0
-1.16
-5.66
-10.24
-14.64
-18.68
-22.33
-25.76
-29.28
-33.31
-38.24
-44.16
-50.75
-57.05
-61.69
-63.15
-60.28
-52.77
-41.29
-27.29
-12.61
1.08
12.68
21.68
28.12
32.37
34.9
36.16
36.63
36.67
36.56
36.38
36.07
35.44
34.32
32.57
30.27
27.59
24.83
22.31
20.27
18.84
17.96
17.44
17.03
16.42
15.41
13.83
11.62
8.76
5.28
1.29
-3.03
-7.42
-11.62
-15.44
-18.87
-22.1
-25.44
-29.3
-34.02
-39.74
-46.34
-53.27
-59.52
-63.8
-64.77
-61.5
-53.75
-42.19
-28.19
-13.5
0.28
11.97
21.02
27.43
31.56
33.95
35.16
35.66
35.75
35.52
34.91
33.75
31.91
29.41
26.43
23.28
20.27
17.7
15.77
14.59
14.17
14.44
15.21
16.13
16.83
16.93
16.17
14.43
11.7
8.07
3.73
-1.08
-6.07
-10.93
-15.41
-19.36
-22.85
-26.11
-29.58
-33.74
-38.9
-45.0
-51.43
-56.96
-60.07
-59.37
-54.14
-44.67
-32.22
-18.57
-5.49
5.81
14.78
21.44
26.13
29.23
31.07
31.95
32.17
32.01
31.66
31.17
30.37
29.04
27.03
24.39
21.38
18.42
15.92
14.14
13.16
12.8
12.81
12.91
12.83
12.38
11.38
9.65
7.07
3.62
-0.53
-5.07
-9.59
-13.7
-17.21
-20.13
-22.71
-25.33
-28.48
-32.58
-37.83
-44.01
-50.36
-55.65
-58.42
-57.41
-52.01
-42.54
-30.16
-16.56
-3.39
8.11
17.35
24.27
29.16
32.42
34.42
35.55
36.14
36.45
36.59
36.48
35.91
34.62
32.51
29.71
26.62
23.7
21.36
19.79
18.91
18.42
17.97
17.28
16.21
14.79
13.08
11.13
8.91
6.28
3.13
-0.6
-4.8
-9.25
-13.62
-17.67
-21.27
-24.47
-27.53
-30.87
-34.87
-39.77
-45.42
-51.14
-55.81
-58.07
-56.77
-51.34
-42.11
-30.17
-17.11
-4.47
6.59
15.51
22.22
26.93
29.97
31.67
32.36
32.39
32.04
31.53
30.9
30.07
28.9
27.29
25.31
23.16
21.15
19.55
18.53
18.06
17.97
17.96
17.75
17.2
16.28
15.09
13.66
11.97
9.84
7.09
3.6
-0.57
-5.16
-9.82
-14.21
-18.07
-21.36
-24.21
-26.95
-30.03
-33.89
-38.79
-44.49
-50.25
-54.78
-56.68
-54.8
-48.76
-39.02
-26.84
-13.8
-1.38
9.42
18.06
24.49
28.83
31.37
32.44
32.49
31.98
31.32
30.7
30.06
29.12
27.62
25.44
22.74
19.88
17.32
15.42
14.35
14.09
14.41
14.99
15.49
15.63
15.27
14.35
12.93
11.04
8.69
5.81
2.34
-1.7
-6.14
-10.71
-15.04
-18.89
-22.16
-24.99
-27.66
-30.56
-34.01
-38.23
-43.1
-48.17
-52.57
-55.15
-54.83
-50.88
-43.29
-32.76
-20.54
-8.09
3.33
12.89
20.23
25.36
28.53
30.11
30.49
30.06
29.19
28.1
26.93
25.68
24.26
22.56
20.48
18.06
15.49
13.12
11.37
10.51
10.58
11.28
12.14
12.69
12.66
12.05
11.0
9.67
8.09
6.12
3.56
0.3
-3.6
-7.87
-12.13
-16.09
-19.6
-22.78
-25.98
-29.67
-34.15
-39.44
-45.01
-49.88
-52.83
-52.79
-49.18
-42.14
-32.43
-21.16
-9.5
1.54
11.31
19.42
25.7
30.23
33.2
34.99
35.97
36.39
36.26
35.37
33.42
30.27
26.09
21.41
16.95
13.37
10.98
9.76
9.33
9.24
9.1
8.76
8.19
7.48
6.65
5.62
4.21
2.26
-0.36
-3.64
-7.45
-11.63
-15.98
-20.37
-24.7
-28.98
-33.35
-37.99
-43.1
-48.66
-54.25
-59.03
-61.83
-61.53
-57.46
-49.69
-39.01
-26.74
-14.23
-2.57
7.57
15.91
22.4
27.07
30.12
31.81
32.55
32.71
32.57
32.18
31.43
30.18
28.34
26.02
23.44
20.89
18.58
16.61
15.01
13.75
12.78
12.01
11.32
10.55
9.53
8.06
6.06
3.45
0.3
-3.29
-7.18
-11.21
-15.29
-19.27
-23.09
-26.72
-30.27
-33.99
-38.18
-43.06
-48.44
-53.63
-57.44
-58.48
-55.66
-48.61
-37.9
-24.84
-11.11
1.72
12.62
21.11
27.23
31.31
33.81
35.15
35.69
35.7
35.31
34.58
33.48
31.97
30.09
27.94
25.65
23.36
21.15
19.07
17.17
15.53
14.24
13.39
12.9
12.59
12.13
11.15
9.34
6.62
3.06
-1.06
-5.42
-9.75
-13.81
-17.48
-20.75
-23.72
-26.67
-30.01
-34.18
-39.46
-45.72
-52.18
-57.54
-60.23
-58.95
-53.13
-43.21
-30.46
-16.58
-3.21
8.56
18.19
25.62
30.98
34.48
36.34
36.85
36.4
35.44
34.3
33.09
31.75
30.06
27.85
25.14
22.14
19.25
16.83
15.16
14.26
13.94
13.91
13.85
13.53
12.85
11.72
10.05
7.67
4.48
0.53
-3.94
-8.52
-12.82
-16.65
-20.06
-23.33
-26.84
-30.98
-36.0
-41.94
-48.41
-54.59
-59.16
-60.67
-57.93
-50.54
-39.13
-25.2
-10.67
2.68
13.71
21.97
27.62
31.13
32.99
33.66
33.44
32.62
31.42
30.01
28.5
26.86
25.04
22.93
20.55
18.06
15.78
14.05
13.09
12.9
13.24
13.72
13.98
13.72
12.8
11.14
8.68
5.4
1.42
-3.03
-7.58
-11.92
-15.85
-19.45
-23.01
-26.95
-31.64
-37.24
-43.51
-49.76
-54.88
-57.54
-56.59
-51.41
-42.25
-30.17
-16.7
-3.44
8.36
18.05
25.46
30.73
34.14
35.96
36.52
36.21
35.43
34.53
33.64
32.68
31.43
29.67
27.38
24.76
22.12
19.77
17.91
16.49
15.39
14.46
13.58
12.69
11.67
10.32
8.38
5.69
2.23
-1.76
-5.91
-9.85
-13.36
-16.5
-19.52
-22.78
-26.63
-31.3
-36.8
-42.87
-48.85
-53.69
-56.12
-54.99
-49.69
-40.43
-28.34
-15.05
-2.25
8.83
17.62
24.18
28.86
32.06
34.0
34.85
34.8
34.1
33.1
32.01
30.88
29.57
27.89
25.77
23.36
20.95
18.86
17.3
16.25
15.52
14.82
13.96
12.84
11.49
9.98
8.32
6.42
4.16
1.44
-1.75
-5.28
-8.98
-12.63
-16.16
-19.63
-23.25
-27.3
-32.05
-37.59
-43.7
-49.74
-54.67
-57.26
-56.43
-51.6
-42.97
-31.46
-18.52
-5.67
5.88
15.43
22.74
27.96
31.36
33.24
33.91
33.7
32.94
31.93
30.84
29.7
28.39
26.76
24.73
22.39
20.0
17.91
16.4
15.54
15.18
15.0
14.7
14.09
13.2
12.09
10.78
9.14
6.89
3.84
-0.03
-4.44
-8.95
-13.12
-16.77
-19.95
-22.99
-26.26
-30.11
-34.73
-40.12
-45.95
-51.54
-55.91
-57.89
-56.53
-51.36
-42.62
-31.24
-18.56
-6.0
5.3
14.64
21.78
26.8
29.99
31.69
32.29
32.11
31.46
30.49
29.23
27.61
25.56
23.08
20.36
17.68
15.38
13.69
12.68
12.25
12.21
12.3
12.31
12.05
11.35
10.07
8.12
5.44
2.07
-1.84
-6.07
-10.29
-14.17
-17.51
-20.27
-22.65
-25.08
-28.01
-31.86
-36.74
-42.39
-48.11
-52.82
-55.32
-54.55
-49.99
-41.82
-30.87
-18.46
-6.0
5.37
14.93
22.43
27.93
31.72
34.14
35.55
36.2
36.25
35.74
34.69
33.11
31.1
28.85
26.55
24.36
22.35
20.52
18.89
17.51
16.42
15.64
15.09
14.61
13.95
12.88
11.27
9.08
6.35
3.17
-0.37
-4.17
-8.11
-12.06
-15.86
-19.42
-22.74
-25.93
-29.27
-33.14
-37.86
-43.47
-49.58
-55.29
-59.3
-60.29
-57.35
-50.3
-39.78
-27.11
-13.84
-1.36
9.36
17.92
24.3
28.78
31.7
33.46
34.41
34.9
35.16
35.28
35.21
34.79
33.84
32.24
30.02
27.43
24.88
22.79
21.47
21.02
21.22
21.67
21.88
21.44
20.17
18.14
15.59
12.74
9.74
6.55
3.05
-0.86
-5.15
-9.64
-14.02
-18.04
-21.52
-24.49
-27.12
-29.71
-32.61
-36.17
-40.62
-45.85
-51.28
-55.84
-58.16
-56.98
-51.62
-42.27
-29.98
-16.37
-3.11
8.52
17.84
24.76
29.55
32.65
34.51
35.51
35.95
36.03
35.85
35.4
34.59
33.32
31.57
29.34
26.75
23.97
21.31
19.09
17.63
17.09
17.4
18.2
19.02
19.34
18.86
17.52
15.55
13.29
11.07
9.09
7.31
5.53
3.4
0.65
-2.82
-6.86
-11.11
-15.16
-18.7
-21.67
-24.24
-26.74
-29.6
-33.21
-37.8
-43.32
-49.24
-54.54
-57.85
-57.83
-53.66
-45.35
-33.84
-20.71
-7.65
3.96
13.4
20.47
25.4
28.52
30.16
30.66
30.38
29.69
28.92
28.24
27.55
26.65
25.27
23.24
20.66
17.82
15.17
13.18
12.17
12.22
13.1
14.33
15.35
15.64
14.98
13.44
11.35
9.04
6.7
4.32
1.7
-1.33
-4.76
-8.41
-11.95
-15.11
-17.8
-20.13
-22.38
-24.89
-27.96
-31.78
-36.38
-41.53
-46.66
-50.88
-53.08
-52.3
-47.96
-40.14
-29.61
-17.59
-5.45
5.6
14.75
21.6
26.17
28.74
29.8
29.88
29.44
28.82
28.09
27.22
26.06
24.5
22.51
20.18
17.74
15.48
13.67
12.51
12.0
12.01
12.24
12.41
12.3
11.82
10.97
9.76
8.15
6.06
3.39
0.16
-3.5
-7.41
-11.33
-15.13
-18.68
-21.97
-25.04
-28.03
-31.19
-34.83
-39.16
-44.06
-48.94
-52.74
-54.22
-52.34
-46.71
-37.72
-26.48
-14.44
-2.98
6.9
14.75
20.51
24.44
26.93
28.37
29.14
29.56
29.77
29.74
29.31
28.28
26.54
24.18
21.47
18.83
16.61
15.05
14.15
13.79
13.77
13.89
13.97
13.85
13.41
12.52
11.1
9.1
6.54
3.44
-0.14
-4.07
-8.18
-12.25
-16.09
-19.6
-22.84
-26.0
-29.43
-33.45
-38.2
-43.52
-48.84
-53.24
-55.6
-54.94
-50.71
-42.98
-32.49
-20.43
-8.12
3.25
12.9
20.46
25.96
29.63
31.86
33.06
33.6
33.76
33.69
33.4
32.78
31.68
30.02
27.81
25.2
22.45
19.88
17.74
16.21
15.28
14.83
14.64
14.44
14.01
13.17
11.89
10.17
8.11
5.74
3.07
0.03
-3.43
-7.3
-11.42
-15.48
-19.19
-22.32
-24.93
-27.38
-30.21
-33.92
-38.69
-44.2
-49.63
-53.79
-55.43
-53.67
-48.23
-39.57
-28.74
-17.05
-5.75
4.26
12.48
18.82
23.42
26.56
28.56
29.73
30.37
30.68
30.72
30.38
29.52
28.0
25.87
23.31
20.64
18.23
16.34
15.16
14.66
14.72
15.1
15.5
15.65
15.34
14.49
13.08
11.1
8.53
5.36
1.6
-2.64
-7.07
-11.36
-15.17
-18.37
-21.01
-23.41
-26.02
-29.26
-33.39
-38.33
-43.64
-48.41
-51.52
-51.85
-48.67
-41.89
-32.13
-20.6
-8.7
2.3
11.52
18.61
23.63
26.92
28.88
29.94
30.38
30.39
29.98
29.08
27.61
25.54
22.97
20.09
17.22
14.64
12.6
11.23
10.53
10.39
10.62
11.01
11.33
11.39
10.98
9.93
8.14
5.57
2.32
-1.42
-5.35
-9.19
-12.74
-15.94
-18.87
-21.8
-25.04
-28.89
-33.5
-38.66
-43.77
-47.81
-49.66
-48.37
-43.5
-35.42
-25.13
-13.99
-3.34
5.88
13.25
18.79
22.73
25.46
27.27
28.47
29.32
29.96
30.4
30.47
29.9
28.52
26.37
23.76
21.17
19.04
17.65
16.99
16.83
16.85
16.79
16.48
15.88
14.98
13.75
12.14
10.07
7.55
4.64
1.43
-1.95
-5.42
-8.92
-12.41
-15.81
-19.09
-22.21
-25.32
-28.71
-32.68
-37.36
-42.49
-47.24
-50.43
-50.85
-47.69
-40.89
-31.22
-19.98
-8.64
1.63
10.1
16.58
21.2
24.24
26.08
27.09
27.67
28.16
28.75
29.43
29.95
29.97
29.15
27.37
24.77
21.74
18.83
16.54
15.19
14.82
15.18
15.78
16.12
15.81
14.74
13.05
11.08
9.1
7.19
5.22
2.91
0.04
-3.39
-7.14
-10.86
-14.19
-16.96
-19.25
-21.34
-23.63
-26.52
-30.28
-34.94
-40.2
-45.33
-49.25
-50.79
-49.01
-43.59
-34.92
-24.11
-12.6
-1.77
7.46
14.65
19.87
23.4
25.62
26.86
27.49
27.79
27.99
28.18
28.26
27.99
27.12
25.53
23.37
20.96
18.73
17.05
16.1
15.89
16.23
16.86
17.49
17.84
17.67
16.91
15.56
13.78
11.73
9.51
7.15
4.58
1.65
-1.67
-5.34
-9.17
-12.92
-16.4
-19.48
-22.2
-24.71
-27.24
-30.11
-33.58
-37.83
-42.71
-47.62
-51.51
-53.12
-51.37
-45.84
-36.98
-25.98
-14.38
-3.55
5.65
12.94
18.44
22.41
25.06
26.56
27.12
27.05
26.71
26.3
25.79
24.95
23.51
21.33
18.57
15.63
13.04
11.24
10.45
10.58
11.32
12.24
12.92
13.04
12.47
11.24
9.5
7.41
5.11
2.59
-0.23
-3.44
-7.0
-10.73
-14.32
-17.51
-20.19
-22.5
-24.83
-27.6
-31.19
-35.66
-40.74
-45.73
-49.68
-51.5
-50.3
-45.62
-37.63
-27.14
-15.39
-3.75
6.66
15.1
21.3
25.38
27.71
28.78
29.14
29.25
29.37
29.52
29.53
29.1
28.02
26.19
23.76
21.02
18.35
16.11
14.53
13.71
13.55
13.77
13.99
13.89
13.21
11.94
10.21
8.2
6.03
3.69
1.06
-2.01
-5.53
-9.38
-13.31
-17.03
-20.37
-23.33
-26.1
-29.02
-32.48
-36.75
-41.81
-47.29
-52.35
-55.89
-56.8
-54.26
-48.07
-38.74
-27.32
-15.15
-3.46
6.85
15.27
21.68
26.19
29.11
30.81
31.69
32.08
32.22
32.2
31.97
31.4
30.33
28.67
26.47
23.9
21.31
19.05
17.44
16.57
16.35
16.41
16.34
15.77
14.52
12.7
10.57
8.41
6.36
4.37
2.18
-0.46
-3.7
-7.47
-11.49
-15.48
-19.23
-22.69
-25.99
-29.37
-33.08
-37.34
-42.24
-47.54
-52.6
-56.36
-57.58
-55.25
-48.97
-39.2
-27.13
-14.31
-2.14
8.38
16.81
23.11
27.45
30.11
31.46
31.97
32.14
32.38
32.82
33.33
33.48
32.89
31.35
29.02
26.36
23.93
22.21
21.34
21.2
21.4
21.54
21.25
20.37
18.92
17.02
14.91
12.72
10.49
8.1
5.33
1.97
-2.07
-6.66
-11.49
-16.16
-20.32
-23.82
-26.76
-29.45
-32.3
-35.81
-40.22
-45.5
-51.05
-55.79
-58.35
-57.46
-52.4
-43.36
-31.38
-18.0
-4.88
6.77
16.24
23.4
28.41
31.58
33.27
33.84
33.65
33.03
32.21
31.26
30.15
28.8
27.1
25.09
22.86
20.65
18.71
17.33
16.67
16.72
17.28
17.95
18.33
18.11
17.11
15.35
12.92
9.93
6.49
2.68
-1.39
-5.57
-9.68
-13.54
-17.06
-20.27
-23.28
-26.29
-29.53
-33.23
-37.56
-42.51
-47.81
-52.8
-56.43
-57.55
-55.12
-48.72
-38.7
-26.21
-12.83
-0.17
10.64
19.05
25.09
29.11
31.54
32.74
32.98
32.5
31.55
30.33
28.96
27.48
25.78
23.81
21.57
19.22
17.04
15.31
14.25
13.87
14.01
14.36
14.62
14.54
13.96
12.79
10.98
8.45
5.18
1.21
-3.26
-7.93
-12.4
-16.42
-19.92
-23.09
-26.34
-30.1
-34.74
-40.33
-46.52
-52.53
-57.2
-59.32
-57.86
-52.41
-43.25
-31.37
-18.16
-5.05
6.78
16.57
24.0
29.12
32.24
33.88
34.61
34.95
35.18
35.34
35.24
34.63
33.33
31.38
28.97
26.38
23.89
21.76
20.15
19.11
18.57
18.32
18.03
17.41
16.27
14.58
12.43
9.98
7.3
4.35
1.05
-2.71
-6.92
-11.43
-15.99
-20.4
-24.52
-28.42
-32.39
-36.84
-42.13
-48.34
-55.0
-61.02
-64.94
-65.3
-61.21
-52.63
-40.48
-26.33
-11.9
1.39
12.66
21.59
28.22
32.8
35.65
37.15
37.7
37.68
37.31
36.68
35.67
34.16
32.07
29.45
26.56
23.76
21.44
19.87
19.18
19.2
19.62
19.99
19.92
19.23
17.88
16.01
13.79
11.3
8.48
5.19
1.29
-3.2
-8.05
-12.94
-17.49
-21.5
-24.99
-28.22
-31.61
-35.55
-40.31
-45.83
-51.62
-56.77
-60.04
-60.2
-56.41
-48.5
-37.15
-23.72
-9.84
3.03
13.92
22.41
28.55
32.59
34.93
35.99
36.24
36.07
35.75
35.35
34.71
33.58
31.73
29.17
26.09
22.92
20.16
18.23
17.34
17.42
18.11
18.88
19.22
18.83
17.7
16.05
14.13
12.06
9.75
6.99
3.57
-0.51
-5.05
-9.7
-14.14
-18.12
-21.63
-24.81
-27.95
-31.44
-35.63
-40.76
-46.74
-53.02
-58.56
-61.96
-61.88
-57.47
-48.71
-36.52
-22.48
-8.4
4.2
14.42
22.05
27.41
30.99
33.27
34.53
34.9
34.47
33.41
31.92
30.17
28.24
26.11
23.77
21.32
19.04
17.33
16.5
16.61
17.38
18.29
18.83
18.63
17.62
15.94
13.77
11.18
8.13
4.53
0.38
-4.18
-8.85
-13.35
-17.48
-21.23
-24.69
-28.0
-31.4
-35.16
-39.6
-44.91
-50.9
-56.74
-61.06
-62.31
-59.28
-51.66
-40.21
-26.46
-12.23
0.97
12.25
21.26
28.01
32.7
35.57
36.96
37.26
36.93
36.37
35.77
35.11
34.2
32.81
30.87
28.48
25.97
23.75
22.18
21.34
21.09
21.06
20.82
20.09
18.79
17.0
14.92
12.71
10.38
7.85
4.95
1.52
-2.47
-6.92
-11.62
-16.28
-20.64
-24.56
-28.05
-31.33
-34.81
-38.91
-43.99
-50.02
-56.45
-62.11
-65.48
-65.08
-60.08
-50.62
-37.81
-23.34
-8.98
3.98
14.85
23.45
29.89
34.32
36.98
38.18
38.41
38.17
37.87
37.6
37.17
36.26
34.57
32.07
28.99
25.79
22.98
20.96
19.89
19.71
20.1
20.56
20.63
19.92
18.39
16.19
13.66
11.13
8.71
6.33
3.69
0.51
-3.33
-7.76
-12.48
-17.11
-21.35
-25.07
-28.39
-31.62
-35.14
-39.35
-44.5
-50.47
-56.65
-61.91
-64.74
-63.77
-58.19
-48.17
-34.87
-20.1
-5.73
6.79
16.75
24.12
29.33
32.88
35.25
36.78
37.72
38.23
38.38
38.16
37.48
36.26
34.43
32.06
29.32
26.5
23.97
22.1
21.19
21.26
22.04
22.97
23.41
22.85
21.09
18.33
15.07
11.88
9.11
6.81
4.69
2.34
-0.61
-4.26
-8.46
-12.86
-17.09
-20.92
-24.28
-27.29
-30.22
-33.43
-37.36
-42.29
-48.28
-54.8
-60.72
-64.48
-64.55
-59.97
-50.74
-37.93
-23.26
-8.6
4.54
15.33
23.54
29.33
33.03
35.02
35.71
35.53
34.9
34.09
33.18
31.98
30.24
27.81
24.78
21.53
18.6
16.52
15.59
15.83
16.92
18.34
19.56
20.13
19.78
18.48
16.39
13.75
10.83
7.79
4.65
1.36
-2.22
-6.14
-10.37
-14.73
-18.99
-22.88
-26.27
-29.23
-32.09
-35.33
-39.47
-44.75
-50.97
-57.35
-62.56
-65.1
-63.74
-57.91
-47.96
-35.02
-20.68
-6.52
6.22
16.84
25.07
30.97
34.82
37.01
38.01
38.31
38.3
38.18
37.87
37.08
35.52
33.03
29.72
26.0
22.44
19.61
17.88
17.29
17.59
18.24
18.66
18.38
17.18
15.19
12.7
10.09
7.55
5.05
2.36
-0.82
-4.67
-9.1
-13.81
-18.4
-22.55
-26.21
-29.57
-33.02
-37.01
-41.86
-47.62
-53.9
-59.83
-64.17
-65.57
-63.02
-56.15
-45.44
-32.1
-17.7
-3.75
8.6
18.73
26.44
31.83
35.17
36.85
37.35
37.24
37.01
36.93
36.97
36.88
36.28
34.88
32.61
29.68
26.51
23.62
21.45
20.21
19.83
20.0
20.21
19.98
19.03
17.36
15.19
12.83
10.48
8.1
5.47
2.31
-1.57
-6.15
-11.22
-16.41
-21.39
-25.93
-29.99
-33.72
-37.39
-41.38
-46.01
-51.38
-57.18
-62.52
-66.08
-66.4
-62.41
-53.89
-41.61
-27.16
-12.37
1.2
12.62
21.67
28.5
33.43
36.7
38.49
39.06
38.84
38.3
37.85
37.61
37.39
36.73
35.23
32.73
29.49
26.07
23.11
21.1
20.2
20.19
20.6
20.89
20.61
19.55
17.75
15.43
12.87
10.26
7.62
4.78
1.43
-2.63
-7.43
-12.73
-18.06
-22.95
-27.03
-30.26
-32.87
-35.4
-38.51
-42.79
-48.41
-54.93
-61.26
-65.86
-67.14
-63.97
-56.11
-44.26
-29.89
-14.8
-0.65
11.37
20.69
27.32
31.59
34.06
35.25
35.66
35.64
35.43
35.06
34.46
33.39
31.65
29.15
26.07
22.83
19.96
17.96
17.08
17.22
18.02
18.96
19.52
19.4
18.47
16.86
14.74
12.29
9.54
6.43
2.78
-1.5
-6.34
-11.5
-16.55
-21.11
-24.96
-28.19
-31.19
-34.5
-38.68
-44.01
-50.37
-57.07
-62.9
-66.4
-66.21
-61.5
-52.3
-39.53
-24.77
-9.79
3.86
15.21
23.9
30.05
34.04
36.34
37.36
37.49
37.07
36.35
35.5
34.52
33.29
31.62
29.44
26.82
24.12
21.84
20.39
19.99
20.46
21.33
22.01
22.04
21.23
19.68
17.61
15.25
12.64
9.74
6.4
2.55
-1.79
-6.48
-11.29
-16.03
-20.54
-24.76
-28.73
-32.62
-36.7
-41.27
-46.59
-52.61
-58.81
-64.13
-67.13
-66.43
-61.18
-51.48
-38.38
-23.62
-9.05
3.92
14.57
22.78
28.83
33.11
35.96
37.73
38.76
39.42
39.95
40.37
40.45
39.82
38.12
35.28
31.62
27.72
24.3
21.89
20.71
20.55
20.93
21.29
21.16
20.34
18.86
16.92
14.76
12.52
10.22
7.75
4.95
1.67
-2.17
-6.54
-11.29
-16.16
-20.87
-25.21
-29.15
-32.9
-36.89
-41.59
-47.24
-53.59
-59.77
-64.4
-65.93
-63.22
-55.89
-44.55
-30.61
-15.85
-1.91
10.1
19.65
26.76
31.7
34.86
36.67
37.52
37.82
37.84
37.7
37.38
36.68
35.43
33.5
31.01
28.19
25.45
23.18
21.69
21.14
21.47
22.4
23.47
24.14
23.97
22.74
20.53
17.65
14.53
11.49
8.64
5.84
2.83
-0.66
-4.7
-9.15
-13.75
-18.16
-22.15
-25.63
-28.73
-31.76
-35.17
-39.39
-44.64
-50.78
-57.08
-62.39
-65.3
-64.55
-59.47
-50.19
-37.72
-23.58
-9.44
3.31
13.84
21.88
27.56
31.22
33.29
34.17
34.25
33.89
33.37
32.83
32.17
31.19
29.64
27.4
24.62
21.7
19.18
17.56
17.06
17.53
18.51
19.35
19.54
18.86
17.39
15.45
13.34
11.2
8.95
6.36
3.19
-0.65
-5.05
-9.7
-14.22
-18.3
-21.82
-24.91
-27.9
-31.19
-35.2
-40.17
-46.05
-52.36
-58.17
-62.14
-62.91
-59.47
-51.62
-40.1
-26.41
-12.39
0.41
11.0
19.11
24.96
28.99
31.65
33.27
34.12
34.43
34.35
33.94
33.17
31.89
29.96
27.44
24.55
21.71
19.4
17.95
17.43
17.64
18.19
18.65
18.66
18.04
16.75
14.9
12.63
10.09
7.33
4.3
0.86
-3.13
-7.69
-12.68
-17.7
-22.32
-26.17
-29.17
-31.61
-34.09
-37.34
-41.89
-47.77
-54.31
-60.23
-63.89
-63.88
-59.42
-50.69
-38.75
-25.16
-11.54
0.84
11.27
19.54
25.75
30.19
33.18
35.09
36.27
37.05
37.62
37.99
37.96
37.28
35.72
33.23
30.04
26.59
23.44
21.04
19.64
19.2
19.43
19.88
20.08
19.67
18.49
16.66
14.47
12.2
10.01
7.81
5.34
2.25
-1.63
-6.23
-11.22
-16.16
-20.7
-24.73
-28.31
-31.72
-35.23
-39.15
-43.73
-49.08
-54.97
-60.73
-65.18
-66.91
-64.77
-58.28
-47.86
-34.77
-20.67
-7.09
4.87
14.72
22.4
28.13
32.21
34.97
36.7
37.74
38.35
38.71
38.87
38.72
38.06
36.7
34.58
31.83
28.8
25.96
23.77
22.51
22.11
22.24
22.38
22.03
20.95
19.11
16.75
14.12
11.5
8.95
6.39
3.61
0.41
-3.32
-7.57
-12.16
-16.87
-21.45
-25.69
-29.5
-32.96
-36.29
-39.89
-44.15
-49.28
-55.05
-60.66
-64.82
-66.05
-63.21
-55.95
-44.86
-31.33
-17.06
-3.58
8.1
17.56
24.82
30.08
33.56
35.48
36.13
35.89
35.19
34.4
33.64
32.83
31.65
29.85
27.38
24.47
21.61
19.36
18.12
17.97
18.65
19.64
20.36
20.33
19.34
17.46
14.97
12.2
9.38
6.52
3.44
-0.1
-4.29
-9.03
-14.0
-18.74
-22.83
-26.17
-28.96
-31.7
-34.95
-39.16
-44.52
-50.77
-57.24
-62.84
-66.23
-66.12
-61.65
-52.72
-40.12
-25.35
-10.24
3.57
14.99
23.65
29.69
33.6
35.9
37.07
37.42
37.24
36.69
35.86
34.73
33.18
31.15
28.66
25.93
23.3
21.16
19.78
19.25
19.37
19.82
20.16
20.04
19.26
17.81
15.8
13.39
10.73
7.83
4.61
0.91
-3.41
-8.3
-13.6
-18.95
-23.98
-28.47
-32.43
-36.11
-39.98
-44.49
-49.9
-56.07
-62.33
-67.52
-70.22
-69.1
-63.4
-53.27
-39.81
-24.72
-9.84
3.4
14.28
22.71
29.04
33.69
36.96
39.08
40.23
40.64
40.57
40.15
39.41
38.21
36.38
33.87
30.9
27.89
25.33
23.62
22.89
22.91
23.24
23.37
22.99
22.05
20.7
19.13
17.4
15.37
12.75
9.33
5.05
0.07
-5.29
-10.71
-15.95
-20.84
-25.32
-29.38
-33.12
-36.87
-41.08
-46.28
-52.72
-60.09
-67.34
-72.91
-75.06
-72.57
-65.15
-53.62
-39.56
-24.78
-10.78
1.58
12.01
20.58
27.41
32.58
36.16
38.33
39.48
40.06
40.42
40.65
40.55
39.78
38.09
35.52
32.43
29.4
27.06
25.8
25.72
26.59
27.94
29.28
30.14
30.22
29.42
27.78
25.42
22.48
19.04
15.13
10.71
5.86
0.69
-4.58
-9.72
-14.52
-18.92
-22.98
-26.95
-31.13
-35.93
-41.62
-48.27
-55.48
-62.32
-67.4
-69.24
-66.76
-59.69
-48.69
-35.19
-20.84
-7.11
5.03
15.18
23.23
29.3
33.53
36.12
37.42
37.85
37.81
37.47
36.83
35.68
33.87
31.4
28.5
25.55
22.95
20.95
19.63
18.92
18.63
18.54
18.41
18.02
17.19
15.8
13.8
11.2
8.02
4.26
-0.03
-4.76
-9.74
-14.74
-19.49
-23.85
-27.86
-31.81
-36.17
-41.41
-47.78
-55.05
-62.29
-68.07
-70.72
-68.94
-62.21
-51.07
-36.95
-21.68
-6.98
5.96
16.59
24.87
30.98
35.14
37.57
38.49
38.19
37.05
35.39
33.44
31.29
28.96
26.46
23.9
21.46
19.34
17.66
16.4
15.43
14.61
13.83
13.04
12.18
11.17
9.83
7.95
5.4
2.15
-1.65
-5.75
-9.88
-13.89
-17.75
-21.56
-25.52
-29.92
-35.05
-41.12
-48.07
-55.34
-61.82
-66.02
-66.49
-62.34
-53.55
-41.12
-26.66
-11.98
1.51
12.95
22.06
28.95
33.88
37.2
39.31
40.62
41.51
42.19
42.62
42.51
41.52
39.47
36.49
33.0
29.53
26.54
24.22
22.54
21.3
20.26
19.28
18.29
17.19
15.86
14.09
11.74
8.75
5.17
1.16
-3.11
-7.51
-11.94
-16.37
-20.8
-25.27
-29.92
-34.99
-40.78
-47.41
-54.56
-61.27
-66.01
-67.18
-63.61
-55.08
-42.48
-27.53
-12.17
2.01
14.11
23.86
31.41
36.98
40.77
43.06
44.18
44.57
44.64
44.58
44.31
43.56
42.04
39.63
36.52
33.09
29.87
27.25
25.39
24.19
23.34
22.49
21.37
19.91
18.15
16.24
14.2
11.89
9.06
5.45
0.98
-4.13
-9.48
-14.68
-19.47
-23.85
-28.05
-32.38
-37.13
-42.54
-48.65
-55.2
-61.47
-66.27
-68.11
-65.74
-58.59
-47.13
-32.82
-17.55
-3.07
9.51
19.78
27.81
33.87
38.22
41.09
42.74
43.52
43.74
43.56
42.95
41.71
39.67
36.78
33.25
29.43
25.8
22.8
20.7
19.55
19.1
18.95
18.61
17.79
16.43
14.75
12.97
11.17
9.16
6.56
3.07
-1.34
-6.35
-11.47
-16.26
-20.52
-24.39
-28.29
-32.73
-38.14
-44.68
-52.04
-59.42
-65.52
-68.76
-67.75
-61.8
-51.2
-37.21
-21.69
-6.52
6.92
17.91
26.32
32.36
36.3
38.35
38.74
37.78
35.84
33.34
30.59
27.72
24.69
21.38
17.81
14.12
10.66
7.83
5.92
4.97
4.76
4.96
5.22
5.36
5.3
4.99
4.28
2.9
0.64
-2.57
-6.5
-10.73
-14.82
-18.48
-21.71
-24.78
-28.07
-32.02
-36.88
-42.58
-48.64
-54.03
-57.39
-57.35
-52.99
-44.31
-32.22
-18.3
-4.27
8.56
19.51
28.42
35.45
40.76
44.46
46.64
47.5
47.36
46.57
45.38
43.88
41.96
39.46
36.3
32.6
28.61
24.7
21.18
18.25
15.93
14.14
12.7
11.46
10.26
8.97
7.42
5.46
2.94
-0.2
-3.91
-7.97
-12.12
-16.14
-19.94
-23.62
-27.4
-31.62
-36.55
-42.32
-48.7
-54.98
-60.01
-62.39
-60.88
-54.83
-44.52
-31.05
-16.1
-1.4
11.68
22.32
30.28
35.68
38.87
40.35
40.68
40.39
39.93
39.49
38.99
38.16
36.66
34.3
31.12
27.43
23.62
20.14
17.24
15.03
13.43
12.25
11.27
10.3
9.15
7.68
5.81
3.5
0.8
-2.18
-5.37
-8.68
-12.07
-15.49
-18.89
-22.23
-25.56
-29.04
-32.92
-37.5
-42.88
-48.75
-54.35
-58.42
-59.58
-56.75
-49.52
-38.36
-24.55
-9.8
4.25
16.32
25.77
32.47
36.69
38.94
39.76
39.69
39.14
38.34
37.34
35.99
34.12
31.6
28.43
24.73
20.74
16.79
13.22
10.39
8.52
7.62
7.47
7.69
7.86
7.66
7.02
5.99
4.71
3.24
1.54
-0.48
-2.86
-5.62
-8.66
-11.86
-15.12
-18.36
-21.65
-25.18
-29.15
-33.74
-38.86
-43.95
-48.02
-49.84
-48.27
-42.75
-33.52
-21.62
-8.6
3.95
14.81
23.3
29.31
33.08
35.04
35.59
35.13
33.97
32.36
30.45
28.27
25.79
22.97
19.89
16.7
13.68
11.1
9.17
7.95
7.35
7.24
7.39
7.59
7.62
7.3
6.44
4.9
2.65
-0.25
-3.57
-7.06
-10.51
-13.82
-17.03
-20.28
-23.76
-27.59
-31.87
-36.61
-41.63
-46.5
-50.41
-52.34
-51.2
-46.35
-37.84
-26.51
-13.81
-1.31
9.74
18.71
25.5
30.36
33.62
35.48
36.07
35.51
34.01
31.82
29.21
26.33
23.27
20.03
16.67
13.35
10.26
7.6
5.49
3.97
3.0
2.49
2.3
2.19
1.87
0.98
-0.71
-3.24
-6.4
-9.81
-13.07
-15.97
-18.59
-21.2
-24.13
-27.64
-31.82
-36.6
-41.73
-46.77
-50.97
-53.34
-52.82
-48.68
-40.84
-29.98
-17.46
-4.87
6.47
15.78
22.93
28.13
31.75
34.04
35.16
35.19
34.33
32.84
30.99
28.98
26.83
24.44
21.69
18.55
15.19
11.91
9.03
6.77
5.21
4.27
3.73
3.36
2.89
2.07
0.71
-1.28
-3.84
-6.78
-9.81
-12.69
-15.3
-17.7
-20.07
-22.72
-25.95
-30.04
-35.03
-40.67
-46.24
-50.64
-52.61
-51.13
-45.77
-36.86
-25.44
-12.97
-0.89
9.65
18.03
24.04
27.9
30.0
30.83
30.81
30.26
29.32
28.05
26.49
24.69
22.75
20.75
18.73
16.66
14.55
12.42
10.39
8.61
7.2
6.19
5.47
4.85
4.07
2.91
1.23
-0.99
-3.66
-6.64
-9.72
-12.75
-15.65
-18.44
-21.22
-24.12
-27.33
-31.06
-35.42
-40.27
-45.12
-49.03
-50.8
-49.33
-44.08
-35.24
-23.8
-11.24
0.96
11.63
20.15
26.41
30.63
33.15
34.32
34.46
33.81
32.57
30.89
28.86
26.54
23.98
21.24
18.41
15.62
13.03
10.78
8.96
7.57
6.52
5.7
5.0
4.34
3.65
2.85
1.81
0.4
-1.51
-3.92
-6.79
-9.96
-13.28
-16.59
-19.84
-23.03
-26.31
-29.91
-34.04
-38.81
-43.95
-48.74
-52.09
-52.76
-49.79
-42.89
-32.62
-20.27
-7.45
4.37
14.2
21.7
27.0
30.45
32.38
32.97
32.34
30.67
28.27
25.5
22.72
20.11
17.65
15.23
12.74
10.28
8.05
6.36
5.39
5.14
5.37
5.76
5.99
5.84
5.19
3.99
2.18
-0.26
-3.32
-6.88
-10.7
-14.52
-18.15
-21.55
-24.89
-28.49
-32.66
-37.59
-43.16
-48.79
-53.51
-56.07
-55.36
-50.69
-42.18
-30.72
-17.77
-4.89
6.63
16.05
23.17
28.17
31.4
33.2
33.86
33.63
32.7
31.25
29.35
27.08
24.46
21.56
18.52
15.52
12.75
10.42
8.63
7.37
6.54
5.95
5.35
4.55
3.35
1.69
-0.43
-2.95
-5.75
-8.7
-11.68
-14.65
-17.62
-20.7
-24.09
-27.99
-32.61
-37.99
-43.9
-49.74
-54.54
-57.07
-56.27
-51.52
-43.0
-31.62
-18.77
-5.92
5.77
15.6
23.34
29.1
33.09
35.62
37.03
37.61
37.66
37.3
36.56
35.33
33.52
31.1
28.21
25.11
22.09
19.44
17.28
15.58
14.26
13.23
12.39
11.66
10.83
9.62
7.68
4.82
1.04
-3.35
-7.87
-12.08
-15.79
-19.05
-22.13
-25.35
-28.97
-33.23
-38.25
-44.04
-50.25
-56.04
-60.11
-60.95
-57.43
-49.25
-37.2
-22.89
-8.25
5.1
16.23
24.92
31.4
35.99
38.95
40.46
40.74
40.14
39.05
37.83
36.62
35.31
33.67
31.46
28.67
25.51
22.41
19.85
18.16
17.37
17.21
17.26
17.1
16.48
15.38
13.9
12.12
10.0
7.37
4.07
0.11
-4.33
-8.87
-13.17
-17.02
-20.43
-23.61
-26.92
-30.78
-35.55
-41.38
-48.01
-54.63
-59.93
-62.39
-60.81
-54.67
-44.43
-31.33
-17.04
-3.13
9.28
19.56
27.59
33.45
37.4
39.71
40.79
41.07
40.94
40.67
40.27
39.59
38.38
36.5
33.93
30.89
27.77
25.04
23.15
22.32
22.49
23.26
24.06
24.24
23.43
21.6
19.03
16.17
13.35
10.64
7.87
4.82
1.38
-2.41
-6.34
-10.26
-14.1
-17.9
-21.68
-25.41
-29.02
-32.52
-36.14
-40.31
-45.38
-51.3
-57.32
-62.02
-63.69
-60.97
-53.38
-41.58
-27.16
-12.09
1.91
13.74
22.98
29.68
34.09
36.49
37.18
36.56
35.15
33.49
31.95
30.6
29.25
27.53
25.24
22.44
19.54
17.09
15.55
15.07
15.45
16.2
16.82
16.91
16.31
15.07
13.33
11.19
8.72
5.89
2.67
-0.96
-4.94
-9.11
-13.33
-17.41
-21.22
-24.73
-28.0
-31.26
-34.81
-38.97
-43.9
-49.33
-54.5
-58.11
-58.74
-55.26
-47.35
-35.65
-21.65
-7.16
6.16
17.27
25.78
31.82
35.82
38.22
39.45
39.79
39.48
38.68
37.51
36.02
34.22
32.12
29.75
27.18
24.57
22.15
20.2
18.96
18.53
18.74
19.17
19.34
18.85
17.56
15.56
13.14
10.52
7.78
4.81
1.45
-2.39
-6.63
-11.02
-15.25
-19.1
-22.51
-25.68
-28.88
-32.42
-36.59
-41.54
-47.17
-53.0
-58.12
-61.29
-61.2
-56.95
-48.38
-36.24
-22.0
-7.47
5.78
16.71
24.95
30.67
34.29
36.32
37.24
37.41
37.15
36.62
35.92
35.03
33.86
32.37
30.58
28.58
26.55
24.69
23.2
22.22
21.83
21.95
22.39
22.84
23.01
22.62
21.54
19.73
17.26
14.3
11.04
7.72
4.53
1.55
-1.27
-4.12
-7.26
-10.83
-14.79
-18.95
-23.0
-26.69
-29.91
-32.76
-35.53
-38.65
-42.51
-47.35
-53.03
-58.85
-63.57
-65.66
-63.8
-57.32
-46.54
-32.7
-17.59
-3.0
9.69
19.77
27.12
32.01
34.94
36.44
37.01
37.06
36.92
36.75
36.52
36.07
35.2
33.74
31.69
29.23
26.73
24.59
23.13
22.5
22.61
23.18
23.83
24.26
24.33
24.0
23.27
22.1
20.39
18.02
14.98
11.46
7.74
4.16
0.85
-2.22
-5.32
-8.68
-12.4
-16.38
-20.37
-24.17
-27.63
-30.71
-33.49
-36.07
-38.62
-41.46
-44.94
-49.32
-54.51
-59.76
-63.73
-64.85
-61.81
-54.17
-42.53
-28.38
-13.6
0.1
11.6
20.46
26.77
30.94
33.44
34.68
34.98
34.62
33.77
32.61
31.21
29.62
27.88
25.96
23.86
21.65
19.46
17.53
16.14
15.52
15.74
16.61
17.75
18.67
18.95
18.33
16.83
14.66
12.13
9.49
6.86
4.15
1.2
-2.21
-6.15
-10.54
-15.12
-19.52
-23.44
-26.75
-29.58
-32.23
-35.18
-38.83
-43.45
-48.95
-54.87
-60.27
-63.92
-64.57
-61.29
-53.83
-42.74
-29.23
-14.84
-1.05
11.03
20.81
28.12
33.11
36.04
37.25
37.11
35.94
34.05
31.68
29.01
26.15
23.16
20.1
17.11
14.4
12.22
10.83
10.33
10.58
11.25
11.9
12.14
11.79
10.88
9.57
7.99
6.14
3.9
1.08
-2.43
-6.59
-11.2
-15.98
-20.64
-24.98
-28.91
-32.53
-36.12
-40.04
-44.73
-50.36
-56.66
-62.74
-67.17
-68.39
-65.2
-57.28
-45.38
-31.01
-16.01
-1.96
10.14
19.89
27.31
32.63
36.1
38.01
38.71
38.64
38.19
37.62
36.95
35.97
34.42
32.11
29.1
25.73
22.53
20.08
18.76
18.6
19.24
20.08
20.48
19.97
18.45
16.13
13.37
10.48
7.55
4.44
0.9
-3.27
-8.07
-13.25
-18.47
-23.39
-27.83
-31.84
-35.67
-39.72
-44.44
-50.17
-56.94
-64.27
-71.01
-75.59
-76.37
-72.22
-62.98
-49.57
-33.74
-17.44
-2.35
10.51
20.85
28.8
34.68
38.76
41.29
42.56
42.89
42.66
42.16
41.49
40.5
38.94
36.6
33.57
30.23
27.23
25.17
24.37
24.68
25.56
26.29
26.25
25.2
23.25
20.79
18.21
15.7
13.18
10.4
7.07
3.03
-1.7
-6.92
-12.39
-17.85
-23.1
-27.99
-32.43
-36.52
-40.55
-45.01
-50.4
-56.94
-64.22
-71.07
-75.74
-76.4
-71.79
-61.76
-47.32
-30.36
-13.06
2.79
16.14
26.63
34.44
39.93
43.47
45.41
46.12
46.03
45.5
44.82
44.01
42.91
41.24
38.79
35.6
32.02
28.63
26.08
24.84
24.97
26.08
27.46
28.33
28.12
26.7
24.32
21.51
18.7
16.1
13.57
10.74
7.2
2.73
-2.61
-8.48
-14.39
-19.91
-24.73
-28.83
-32.44
-35.99
-40.02
-44.98
-51.07
-58.02
-64.9
-70.29
-72.5
-70.13
-62.54
-50.16
-34.45
-17.47
-1.31
12.51
23.21
30.8
35.76
38.69
40.17
40.62
40.4
39.82
39.1
38.31
37.32
35.9
33.84
31.16
28.15
25.35
23.3
22.37
22.61
23.69
25.05
26.08
26.27
25.35
23.36
20.5
17.09
13.37
9.43
5.18
0.5
-4.64
-10.03
-15.33
-20.17
-24.37
-27.99
-31.38
-35.06
-39.52
-45.11
-51.81
-59.16
-66.11
-71.18
-72.71
-69.45
-60.99
-47.99
-32.07
-15.28
0.46
13.85
24.32
31.89
36.92
39.91
41.36
41.77
41.64
41.38
41.17
41.02
40.69
39.88
38.36
36.12
33.4
30.69
28.49
27.2
26.95
27.49
28.28
28.72
28.29
26.77
24.27
21.1
17.64
14.12
10.62
7.03
3.2
-1.0
-5.62
-10.52
-15.52
-20.33
-24.78
-28.8
-32.63
-36.62
-41.3
-47.07
-54.01
-61.62
-68.79
-73.9
-75.29
-71.76
-63.02
-49.89
-34.05
-17.54
-2.15
10.96
21.39
29.32
35.16
39.3
42.03
43.59
44.3
44.49
44.47
44.36
44.06
43.29
41.77
39.4
36.39
33.19
30.32
28.24
27.14
26.99
27.52
28.33
28.93
28.92
27.94
25.93
23.02
19.54
15.89
12.33
8.92
5.53
1.92
-2.12
-6.6
-11.41
-16.32
-21.08
-25.5
-29.52
-33.16
-36.54
-39.93
-43.67
-48.2
-53.75
-60.16
-66.6
-71.63
-73.55
-70.88
-63.04
-50.54
-34.93
-18.3
-2.62
10.73
21.16
28.75
33.92
37.19
39.03
39.86
40.04
39.96
39.85
39.8
39.66
39.16
37.98
36.02
33.5
30.88
28.77
27.57
27.41
28.02
28.91
29.56
29.66
29.18
28.27
27.18
26.0
24.67
22.95
20.67
17.74
14.32
10.64
6.99
3.53
0.27
-2.91
-6.17
-9.62
-13.26
-17.04
-20.86
-24.66
-28.42
-32.13
-35.82
-39.49
-43.28
-47.4
-52.15
-57.69
-63.8
-69.68
-73.94
-74.98
-71.42
-62.76
-49.63
-33.59
-16.73
-0.96
12.39
22.74
30.14
34.97
37.71
38.85
38.85
38.17
37.22
36.27
35.35
34.36
33.06
31.27
28.98
26.32
23.62
21.3
19.75
19.2
19.68
20.93
22.47
23.74
24.25
23.75
22.24
19.98
17.31
14.53
11.76
9.0
6.13
3.01
-0.44
-4.25
-8.38
-12.76
-17.25
-21.62
-25.65
-29.12
-31.99
-34.49
-37.07
-40.35
-44.8
-50.51
-56.93
-62.86
-66.74
-67.04
-62.8
-53.94
-41.35
-26.56
-11.36
2.69
14.56
23.71
30.06
33.87
35.53
35.6
34.71
33.39
32.05
30.76
29.41
27.71
25.45
22.6
19.38
16.18
13.45
11.51
10.49
10.28
10.55
10.89
10.92
10.42
9.32
7.69
5.64
3.22
0.38
-2.99
-6.94
-11.4
-16.13
-20.82
-25.17
-29.0
-32.33
-35.35
-38.42
-41.95
-46.29
-51.57
-57.5
-63.24
-67.45
-68.59
-65.46
-57.65
-45.75
-31.14
-15.63
-0.81
12.17
22.78
30.93
36.74
40.48
42.45
43.09
42.87
42.24
41.47
40.6
39.48
37.89
35.67
32.86
29.68
26.45
23.5
21.02
19.05
17.53
16.36
15.51
14.93
14.52
14.07
13.24
11.64
9.03
5.36
0.83
-4.22
-9.49
-14.77
-19.99
-25.12
-30.17
-35.22
-40.43
-46.1
-52.55
-59.86
-67.53
-74.35
-78.56
-78.4
-72.79
-61.81
-46.73
-29.6
-12.63
2.49
14.79
24.09
30.67
35.03
37.67
39.06
39.65
39.82
39.83
39.74
39.42
38.63
37.17
34.98
32.22
29.15
26.1
23.35
21.02
19.13
17.66
16.49
15.52
14.54
13.28
11.46
8.83
5.25
0.8
-4.32
-9.77
-15.16
-20.2
-24.69
-28.65
-32.34
-36.23
-40.88
-46.67
-53.57
-60.9
-67.31
-71.11
-70.74
-65.35
-55.16
-41.34
-25.74
-10.22
3.84
15.71
25.27
32.72
38.3
42.24
44.7
45.91
46.13
45.66
44.7
43.33
41.53
39.19
36.24
32.74
28.87
24.96
21.44
18.63
16.72
15.65
15.15
14.8
14.13
12.77
10.54
7.49
3.8
-0.22
-4.29
-8.28
-12.17
-16.11
-20.31
-25.02
-30.44
-36.73
-43.86
-51.44
-58.59
-63.95
-66.03
-63.65
-56.47
-45.11
-31.04
-16.08
-1.82
10.69
21.02
29.14
35.17
39.25
41.62
42.63
42.75
42.44
41.93
41.18
39.89
37.77
34.71
30.92
26.87
23.1
20.05
17.86
16.46
15.59
14.93
14.12
12.86
10.92
8.19
4.7
0.63
-3.69
-7.92
-11.82
-15.36
-18.77
-22.5
-27.06
-32.83
-39.8
-47.43
-54.66
-60.05
-62.18
-60.02
-53.32
-42.66
-29.34
-14.94
-0.94
11.55
21.93
29.97
35.73
39.42
41.38
42.02
41.82
41.22
40.49
39.7
38.72
37.31
35.23
32.37
28.8
24.84
20.94
17.64
15.34
14.14
13.78
13.69
13.19
11.75
9.19
5.71
1.74
-2.25
-6.05
-9.7
-13.45
-17.63
-22.54
-28.33
-35.04
-42.41
-49.83
-56.19
-60.04
-59.94
-55.05
-45.52
-32.54
-18.01
-3.86
8.53
18.55
26.31
32.14
36.38
39.16
40.53
40.65
39.83
38.46
36.86
35.13
33.16
30.79
27.9
24.57
21.04
17.7
14.96
13.09
12.2
12.14
12.51
12.73
12.25
10.69
8.0
4.43
0.44
-3.55
-7.28
-10.77
-14.27
-18.11
-22.6
-27.89
-33.98
-40.58
-47.06
-52.44
-55.53
-55.21
-50.82
-42.45
-31.03
-18.01
-4.95
6.91
16.88
24.75
30.56
34.43
36.43
36.68
35.48
33.32
30.76
28.22
25.9
23.77
21.6
19.19
16.49
13.59
10.79
8.38
6.65
5.72
5.53
5.82
6.17
6.08
5.13
3.13
0.16
-3.44
-7.25
-10.9
-14.26
-17.42
-20.69
-24.38
-28.77
-33.93
-39.69
-45.59
-50.87
-54.52
-55.41
-52.63
-45.81
-35.35
-22.41
-8.65
4.28
15.13
23.3
28.85
32.26
34.15
35.08
35.36
35.11
34.32
32.98
31.14
28.95
26.59
24.21
21.88
19.59
17.36
15.23
13.36
11.95
11.1
10.73
10.51
9.99
8.76
6.63
3.67
0.16
-3.55
-7.2
-10.65
-13.93
-17.09
-20.23
-23.47
-26.98
-30.96
-35.63
-41.01
-46.78
-52.14
-55.91
-56.86
-54.07
-47.31
-37.15
-24.83
-11.88
0.28
10.65
18.78
24.7
28.73
31.29
32.78
33.51
33.77
33.77
33.65
33.4
32.91
31.91
30.2
27.76
24.84
21.92
19.54
18.07
17.51
17.57
17.77
17.71
17.11
15.91
14.22
12.21
10.04
7.83
5.59
3.22
0.51
-2.71
-6.49
-10.65
-14.83
-18.67
-21.98
-24.83
-27.59
-30.76
-34.77
-39.81
-45.74
-51.95
-57.44
-60.94
-61.24
-57.55
-49.76
-38.59
-25.43
-11.9
0.56
10.98
19.0
24.74
28.58
30.96
32.29
32.9
33.05
32.96
32.72
32.36
31.79
30.87
29.47
27.61
25.44
23.25
21.37
20.05
19.38
19.3
19.57
19.94
20.16
20.02
19.37
18.06
16.08
13.49
10.49
7.34
4.24
1.27
-1.72
-4.92
-8.48
-12.4
-16.49
-20.45
-24.01
-27.03
-29.55
-31.81
-34.16
-36.98
-40.61
-45.11
-50.17
-55.01
-58.43
-59.12
-56.11
-49.13
-38.75
-26.25
-13.25
-1.18
8.99
16.92
22.7
26.65
29.09
30.3
30.51
30.02
29.15
28.17
27.2
26.15
24.81
22.94
20.47
17.6
14.76
12.52
11.31
11.33
12.38
13.98
15.46
16.26
16.08
14.96
13.16
11.04
8.85
6.68
4.41
1.88
-1.11
-4.62
-8.63
-12.96
-17.35
-21.52
-25.23
-28.43
-31.29
-34.19
-37.61
-41.93
-47.19
-52.91
-58.09
-61.38
-61.49
-57.63
-49.76
-38.67
-25.69
-12.31
0.2
10.96
19.52
25.74
29.74
31.77
32.25
31.66
30.49
29.05
27.45
25.61
23.37
20.66
17.62
14.59
12.03
10.29
9.54
9.64
10.28
11.0
11.48
11.45
10.83
9.61
7.85
5.59
2.89
-0.18
-3.55
-7.17
-10.96
-14.83
-18.66
-22.31
-25.71
-28.94
-32.25
-36.01
-40.6
-46.15
-52.33
-58.29
-62.7
-64.19
-61.67
-54.81
-44.18
-31.08
-17.15
-3.91
7.63
17.02
24.27
29.6
33.28
35.56
36.72
37.06
36.89
36.41
35.64
34.45
32.64
30.1
26.97
23.67
20.76
18.75
17.87
17.96
18.54
19.01
18.89
17.93
16.19
13.91
11.38
8.78
6.12
3.26
0.03
-3.69
-7.91
-12.46
-17.09
-21.57
-25.73
-29.61
-33.37
-37.4
-42.12
-47.84
-54.52
-61.55
-67.71
-71.39
-71.07
-65.84
-55.85
-42.2
-26.66
-11.07
3.18
15.25
24.86
32.03
36.91
39.76
41.0
41.18
40.85
40.43
40.0
39.4
38.32
36.52
33.98
30.89
27.65
24.66
22.35
20.97
20.59
21.05
21.93
22.71
22.87
22.16
20.61
18.48
16.08
13.58
10.9
7.77
3.92
-0.76
-6.09
-11.67
-17.03
-21.8
-25.83
-29.23
-32.31
-35.52
-39.33
-44.16
-50.18
-57.1
-64.09
-69.76
-72.5
-70.92
-64.36
-53.19
-38.73
-22.84
-7.32
6.48
17.93
26.96
33.79
38.72
41.99
43.88
44.71
44.87
44.65
44.18
43.39
42.12
40.23
37.75
34.89
31.99
29.4
27.47
26.37
26.14
26.61
27.47
28.3
28.69
28.32
27.02
24.81
21.86
18.45
14.87
11.38
8.05
4.75
1.23
-2.77
-7.35
-12.41
-17.61
-22.58
-27.03
-30.87
-34.25
-37.47
-40.99
-45.24
-50.57
-56.95
-63.78
-69.85
-73.49
-73.11
-67.71
-57.37
-43.22
-27.17
-11.22
3.07
14.86
23.99
30.72
35.44
38.51
40.2
40.79
40.61
39.96
39.09
38.04
36.73
34.95
32.59
29.73
26.68
23.97
22.15
21.58
22.32
24.06
26.17
27.89
28.59
27.91
25.85
22.76
19.17
15.6
12.31
9.31
6.32
2.99
-0.92
-5.45
-10.43
-15.55
-20.49
-25.04
-29.08
-32.7
-36.16
-39.85
-44.26
-49.7
-56.04
-62.53
-67.8
-70.14
-68.12
-61.05
-49.4
-34.63
-18.75
-3.72
9.15
19.29
26.77
31.97
35.3
37.07
37.57
37.14
36.17
35.0
33.8
32.46
30.76
28.45
25.56
22.42
19.6
17.7
17.08
17.67
18.99
20.31
21.0
20.65
19.29
17.19
14.71
12.07
9.3
6.22
2.62
-1.6
-6.43
-11.69
-17.1
-22.36
-27.23
-31.58
-35.49
-39.28
-43.4
-48.35
-54.29
-60.84
-66.97
-71.12
-71.7
-67.56
-58.51
-45.43
-29.96
-14.06
0.61
12.99
22.75
29.99
35.08
38.4
40.32
41.23
41.57
41.7
41.86
41.98
41.79
40.89
39.01
36.18
32.75
29.3
26.41
24.47
23.58
23.54
23.93
24.25
24.04
22.99
21.05
18.37
15.3
12.19
9.18
6.19
2.89
-1.05
-5.73
-10.96
-16.29
-21.26
-25.57
-29.27
-32.69
-36.33
-40.65
-45.99
-52.4
-59.54
-66.54
-72.1
-74.65
-72.89
-66.2
-54.97
-40.53
-24.71
-9.33
4.34
15.65
24.56
31.28
36.11
39.3
41.14
42.0
42.24
42.21
42.06
41.75
41.03
39.65
37.48
34.65
31.54
28.66
26.51
25.38
25.25
25.79
26.49
26.78
26.27
24.84
22.6
19.81
16.78
13.68
10.51
7.14
3.36
-0.95
-5.76
-10.87
-15.98
-20.78
-25.08
-28.82
-32.09
-35.09
-38.11
-41.55
-45.85
-51.32
-57.89
-64.83
-70.72
-73.75
-72.31
-65.59
-53.97
-38.92
-22.47
-6.62
7.26
18.52
27.11
33.26
37.32
39.66
40.74
41.07
41.14
41.23
41.36
41.29
40.67
39.28
37.08
34.31
31.35
28.66
26.65
25.59
25.54
26.35
27.63
28.89
29.6
29.35
27.96
25.48
22.2
18.46
14.64
11.02
7.69
4.59
1.51
-1.8
-5.55
-9.8
-14.44
-19.23
-23.86
-28.06
-31.7
-34.85
-37.86
-41.27
-45.61
-51.23
-57.86
-64.62
-70.03
-72.42
-70.43
-63.53
-52.2
-37.79
-22.1
-6.84
6.66
17.7
26.04
31.8
35.3
37.0
37.45
37.18
36.61
35.96
35.2
34.16
32.66
30.62
28.12
25.41
22.83
20.78
19.57
19.39
20.2
21.67
23.27
24.4
24.57
23.54
21.42
18.51
15.27
12.04
9.0
6.09
3.09
-0.27
-4.14
-8.54
-13.29
-18.08
-22.59
-26.62
-30.13
-33.32
-36.56
-40.3
-44.94
-50.66
-57.16
-63.61
-68.61
-70.57
-68.16
-60.83
-49.07
-34.31
-18.54
-3.61
9.16
19.19
26.54
31.58
34.75
36.42
36.88
36.49
35.59
34.42
33.08
31.45
29.33
26.62
23.47
20.31
17.7
16.11
15.71
16.28
17.33
18.24
18.57
18.11
16.93
15.22
13.17
10.82
8.09
4.83
0.96
-3.42
-8.08
-12.73
-17.17
-21.3
-25.17
-28.9
-32.69
-36.78
-41.47
-47.01
-53.34
-59.89
-65.47
-68.56
-67.69
-62.11
-52.05
-38.74
-23.97
-9.5
3.35
13.96
22.24
28.42
32.84
35.82
37.69
38.8
39.52
40.09
40.56
40.71
40.22
38.78
36.36
33.18
29.76
26.65
24.29
22.84
22.15
21.91
21.74
21.32
20.47
19.12
17.31
15.12
12.68
10.06
7.2
3.96
0.18
-4.24
-9.17
-14.31
-19.31
-23.89
-28.03
-31.96
-36.07
-40.8
-46.44
-52.99
-59.97
-66.45
-71.08
-72.44
-69.45
-61.78
-50.04
-35.66
-20.42
-5.94
6.69
16.98
24.91
30.7
34.62
37.03
38.34
39.07
39.69
40.43
41.25
41.81
41.67
40.5
38.24
35.21
32.01
29.24
27.41
26.66
26.8
27.38
27.86
27.79
26.93
25.24
22.87
20.05
16.99
13.92
10.92
7.95
4.82
1.24
-3.01
-7.95
-13.32
-18.7
-23.6
-27.78
-31.34
-34.66
-38.34
-42.92
-48.69
-55.5
-62.67
-69.01
-73.02
-73.26
-68.78
-59.53
-46.38
-30.89
-14.92
-0.03
12.69
22.77
30.19
35.21
38.26
39.85
40.56
40.84
41.0
41.06
40.86
40.13
38.74
36.74
34.38
31.96
29.77
28.02
26.82
26.2
26.13
26.5
27.08
27.59
27.67
27.04
25.58
23.36
20.61
17.63
14.66
11.77
8.9
5.83
2.38
-1.6
-6.08
-10.91
-15.82
-20.54
-24.84
-28.63
-32.03
-35.24
-38.58
-42.39
-46.97
-52.45
-58.64
-64.88
-70.02
-72.57
-71.1
-64.8
-53.8
-39.29
-23.15
-7.44
6.26
17.12
25.07
30.53
34.05
36.13
37.13
37.32
36.92
36.09
34.96
33.57
31.91
29.95
27.68
25.16
22.61
20.35
18.77
18.22
18.77
20.19
21.9
23.19
23.49
22.55
20.53
17.86
15.0
12.23
9.55
6.68
3.3
-0.83
-5.7
-11.07
-16.47
-21.48
-25.78
-29.36
-32.44
-35.46
-38.89
-43.15
-48.45
-54.65
-61.14
-66.72
-69.88
-69.13
-63.58
-53.34
-39.54
-24.05
-8.81
4.63
15.52
23.71
29.48
33.21
35.31
36.21
36.4
36.33
36.32
36.35
36.12
35.22
33.36
30.62
27.43
24.44
22.24
21.16
21.11
21.73
22.45
22.79
22.41
21.23
19.37
17.09
14.64
12.18
9.65
6.86
3.58
-0.39
-5.01
-10.08
-15.23
-20.08
-24.41
-28.23
-31.78
-35.51
-39.89
-45.25
-51.58
-58.29
-64.26
-67.96
-67.89
-63.14
-53.69
-40.53
-25.41
-10.19
3.57
14.99
23.83
30.31
34.81
37.73
39.39
40.17
40.42
40.46
40.47
40.42
40.06
39.1
37.3
34.69
31.53
28.28
25.46
23.47
22.48
22.42
22.97
23.65
23.93
23.39
21.84
19.37
16.31
13.06
9.92
6.95
3.94
0.63
-3.18
-7.49
-12.07
-16.57
-20.73
-24.45
-27.81
-30.99
-34.19
-37.61
-41.45
-45.95
-51.3
-57.36
-63.47
-68.38
-70.46
-68.28
-61.13
-49.44
-34.68
-18.87
-3.95
8.75
18.69
25.97
31.0
34.28
36.22
37.2
37.54
37.57
37.52
37.45
37.25
36.68
35.49
33.61
31.2
28.66
26.46
24.97
24.34
24.44
24.92
25.37
25.41
24.8
23.44
21.35
18.64
15.56
12.39
9.36
6.57
3.86
0.97
-2.45
-6.53
-11.18
-16.08
-20.85
-25.14
-28.83
-32.03
-35.04
-38.28
-42.17
-47.12
-53.21
-60.03
-66.59
-71.32
-72.55
-69.01
-60.37
-47.44
-31.93
-15.9
-1.17
11.17
20.78
27.8
32.67
35.79
37.53
38.21
38.22
37.87
37.39
36.78
35.87
34.4
32.18
29.26
25.93
22.71
20.13
18.62
18.33
19.08
20.43
21.79
22.62
22.55
21.48
19.56
17.05
14.23
11.27
8.19
4.86
1.09
-3.26
-8.15
-13.37
-18.54
-23.27
-27.31
-30.56
-33.21
-35.65
-38.39
-41.93
-46.58
-52.29
-58.39
-63.63
-66.38
-65.15
-59.11
-48.51
-34.69
-19.57
-5.09
7.4
17.29
24.67
29.89
33.34
35.29
35.98
35.68
34.76
33.58
32.31
30.93
29.24
27.03
24.29
21.26
18.4
16.24
15.11
15.03
15.68
16.54
17.07
16.93
16.04
14.57
12.75
10.78
8.63
6.15
3.09
-0.7
-5.2
-10.17
-15.23
-20.01
-24.28
-27.99
-31.34
-34.67
-38.45
-43.09
-48.82
-55.41
-62.0
-67.22
-69.46
-67.43
-60.61
-49.53
-35.58
-20.59
-6.24
6.28
16.44
24.21
29.78
33.47
35.61
36.59
36.89
36.97
37.12
37.44
37.74
37.62
36.71
34.8
31.99
28.68
25.49
22.98
21.5
21.05
21.31
21.73
21.8
21.15
19.66
17.47
14.85
12.07
9.23
6.29
3.04
-0.71
-5.01
-9.72
-14.51
-19.07
-23.21
-26.94
-30.46
-34.09
-38.15
-42.95
-48.67
-55.22
-62.11
-68.28
-72.25
-72.49
-67.96
-58.57
-45.29
-29.93
-14.46
-0.53
11.01
19.99
26.75
31.73
35.3
37.69
39.11
39.78
39.96
39.86
39.57
39.04
38.1
36.59
34.5
31.97
29.35
27.06
25.47
24.74
24.72
25.08
25.33
25.06
24.06
22.33
20.06
17.51
14.84
12.12
9.26
6.13
2.61
-1.36
-5.69
-10.29
-14.94
-19.47
-23.75
-27.72
-31.51
-35.45
-39.96
-45.44
-52.05
-59.42
-66.55
-71.93
-73.91
-71.28
-63.67
-51.79
-37.2
-21.81
-7.35
5.13
15.21
23.01
28.88
33.23
36.39
38.67
40.35
41.6
42.49
42.89
42.6
41.48
39.49
36.79
33.7
30.59
27.81
25.67
24.39
24.05
24.53
25.5
26.47
26.94
26.54
25.12
22.81
19.88
16.68
13.42
10.23
7.05
3.76
0.2
-3.73
-8.05
-12.68
-17.39
-21.92
-26.02
-29.56
-32.68
-35.69
-39.13
-43.53
-49.16
-55.78
-62.52
-67.91
-70.29
-68.33
-61.54
-50.47
-36.55
-21.64
-7.4
5.06
15.26
23.17
28.97
32.83
34.98
35.77
35.68
35.23
34.8
34.46
33.96
32.9
30.93
28.06
24.64
21.35
18.88
17.66
17.79
18.91
20.37
21.48
21.71
20.82
18.9
16.27
13.33
10.38
7.55
4.69
1.55
-2.1
-6.34
-10.98
-15.63
-19.9
-23.61
-26.84
-29.93
-33.34
-37.45
-42.5
-48.46
-54.95
-61.18
-65.98
-67.94
-65.87
-59.2
-48.34
-34.57
-19.72
-5.58
6.58
16.27
23.56
28.9
32.74
35.47
37.3
38.45
39.05
39.26
39.12
38.62
37.66
36.14
34.02
31.45
28.76
26.4
24.77
24.07
24.18
24.69
25.0
24.61
23.26
21.07
18.38
15.63
13.05
10.64
8.12
5.12
1.37
-3.15
-8.23
-13.49
-18.59
-23.3
-27.54
-31.41
-35.08
-38.87
-43.18
-48.36
-54.52
-61.28
-67.57
-71.82
-72.37
-68.08
-58.85
-45.7
-30.47
-15.17
-1.37
10.15
19.29
26.38
31.81
35.82
38.55
40.17
40.93
41.21
41.27
41.26
41.06
40.4
39.03
36.86
34.04
30.94
28.07
25.9
24.69
24.44
24.83
25.41
25.68
25.31
24.13
22.19
19.65
16.75
13.68
10.6
7.62
4.66
1.62
-1.75
-5.61
-10.03
-14.89
-19.94
-24.88
-29.45
-33.54
-37.25
-40.84
-44.74
-49.4
-55.06
-61.47
-67.74
-72.41
-73.78
-70.54
-62.28
-49.71
-34.49
-18.61
-3.85
8.74
18.83
26.61
32.46
36.74
39.72
41.63
42.75
43.35
43.62
43.56
43.02
41.77
39.65
36.73
33.31
29.84
26.82
24.63
23.41
23.1
23.44
24.09
24.68
24.91
24.58
23.61
22.03
19.93
17.46
14.73
11.81
8.71
5.4
1.87
-1.88
-5.85
-10.02
-14.33
-18.69
-22.93
-26.88
-30.42
-33.56
-36.54
-39.76
-43.72
-48.77
-54.88
-61.47
-67.35
-70.98
-70.85
-66.06
-56.62
-43.55
-28.56
-13.55
-0.07
11.03
19.59
25.9
30.42
33.53
35.48
36.4
36.48
35.97
35.12
34.1
32.89
31.32
29.14
26.25
22.85
19.47
16.81
15.47
15.71
17.27
19.47
21.46
22.51
22.25
20.72
18.25
15.28
12.16
9.0
5.71
2.08
-2.01
-6.58
-11.46
-16.38
-21.05
-25.21
-28.75
-31.73
-34.42
-37.28
-40.8
-45.45
-51.3
-57.85
-63.9
-67.88
-68.17
-63.79
-54.69
-41.85
-26.99
-11.97
1.71
13.18
22.18
28.89
33.59
36.56
38.05
38.33
37.82
36.94
36.03
35.18
34.26
32.95
30.97
28.3
25.21
22.25
19.98
18.76
18.61
19.17
19.86
20.09
19.52
18.11
16.12
13.88
11.65
9.45
7.08
4.24
0.67
-3.64
-8.52
-13.64
-18.7
-23.51
-28.07
-32.53
-37.13
-42.15
-47.87
-54.39
-61.54
-68.59
-74.35
-77.25
-75.92
-69.63
-58.65
-44.25
-28.3
-12.67
1.25
12.75
21.8
28.68
33.73
37.26
39.57
40.97
41.82
42.41
42.83
42.97
42.54
41.24
38.96
35.84
32.27
28.83
26.04
24.23
23.41
23.31
23.43
23.26
22.38
20.69
18.33
15.59
12.78
10.03
7.24
4.14
0.5
-3.74
-8.45
-13.33
-18.07
-22.48
-26.55
-30.41
-34.26
-38.35
-42.98
-48.46
-55.0
-62.42
-69.85
-75.79
-78.38
-76.1
-68.31
-55.69
-39.93
-23.21
-7.46
6.1
17.04
25.49
31.79
36.27
39.24
41.01
42.01
42.59
43.05
43.39
43.41
42.83
41.36
39.0
35.94
32.64
29.63
27.38
26.17
25.94
26.34
26.79
26.73
25.73
23.74
20.97
17.89
14.91
12.22
9.71
6.99
3.62
-0.64
-5.76
-11.38
-17.03
-22.26
-26.82
-30.73
-34.19
-37.58
-41.31
-45.83
-51.49
-58.28
-65.61
-72.24
-76.42
-76.44
-71.24
-60.81
-46.35
-29.8
-13.26
1.61
13.93
23.53
30.69
35.78
39.18
41.17
42.09
42.27
42.04
41.57
40.78
39.44
37.3
34.26
30.58
26.78
23.54
21.45
20.79
21.41
22.81
24.28
25.17
25.07
23.89
21.81
19.16
16.29
13.32
10.21
6.8
2.89
-1.61
-6.61
-11.84
-16.99
-21.77
-26.04
-29.87
-33.54
-37.49
-42.18
-47.99
-54.9
-62.34
-69.09
-73.51
-73.99
-69.46
-59.87
-46.25
-30.36
-14.19
0.6
13.02
22.73
29.87
34.77
37.81
39.42
39.99
39.93
39.51
38.8
37.71
36.07
33.77
30.88
27.67
24.54
21.92
20.13
19.29
19.31
19.82
20.39
20.54
19.97
18.58
16.47
13.83
10.8
7.39
3.47
-1.06
-6.15
-11.54
-16.84
-21.67
-25.85
-29.53
-33.12
-37.17
-42.19
-48.42
-55.63
-63.03
-69.33
-72.97
-72.53
-67.18
-57.02
-43.09
-27.15
-11.15
3.31
15.23
24.39
31.08
35.86
39.32
41.9
43.88
45.4
46.49
47.11
47.15
46.48
44.93
42.44
39.1
35.27
31.51
28.45
26.53
25.86
26.08
26.49
26.4
25.38
23.4
20.82
18.06
15.39
12.74
9.82
6.32
2.06
-2.84
-8.08
-13.27
-18.13
-22.55
-26.6
-30.44
-34.29
-38.42
-43.16
-48.81
-55.53
-62.95
-70.1
-75.35
-76.91
-73.43
-64.58
-51.27
-35.34
-18.96
-3.84
9.03
19.44
27.59
33.8
38.28
41.23
42.94
43.79
44.2
44.43
44.44
44.02
42.88
40.93
38.29
35.35
32.51
30.2
28.62
27.85
27.82
28.32
29.03
29.57
29.52
28.54
26.52
23.58
20.06
16.37
12.8
9.44
6.16
2.73
-1.06
-5.3
-9.94
-14.81
-19.66
-24.31
-28.59
-32.44
-35.89
-39.14
-42.57
-46.67
-51.84
-58.04
-64.58
-70.02
-72.57
-70.68
-63.58
-51.76
-36.72
-20.51
-5.09
8.21
18.83
26.83
32.52
36.32
38.6
39.74
40.17
40.3
40.43
40.57
40.53
39.95
38.55
36.25
33.26
30.03
27.07
24.79
23.42
22.98
23.27
23.99
24.77
25.22
25.02
24.0
22.14
19.58
16.57
13.43
10.34
7.37
4.4
1.19
-2.47
-6.69
-11.37
-16.22
-20.86
-25.0
-28.51
-31.58
-34.54
-37.84
-41.91
-47.02
-53.14
-59.82
-66.06
-70.45
-71.47
-67.95
-59.57
-47.0
-31.78
-15.83
-0.92
11.75
21.63
28.71
33.32
35.87
36.86
36.79
36.09
35.1
33.96
32.61
30.9
28.69
26.04
23.16
20.43
18.26
16.99
16.73
17.32
18.38
19.43
20.0
19.82
18.84
17.18
15.09
12.73
10.13
7.17
3.65
-0.57
-5.41
-10.65
-15.86
-20.64
-24.73
-28.12
-31.01
-33.8
-36.98
-41.03
-46.26
-52.57
-59.29
-65.16
-68.5
-67.75
-62.0
-51.41
-37.25
-21.49
-6.18
7.15
17.74
25.58
31.09
34.76
37.01
38.19
38.6
38.57
38.38
38.16
37.8
36.99
35.38
32.79
29.41
25.74
22.48
20.24
19.24
19.33
20.0
20.61
20.61
19.73
17.96
15.5
12.69
9.79
6.93
4.03
0.87
-2.82
-7.15
-12.03
-17.12
-21.98
-26.27
-29.91
-33.15
-36.47
-40.39
-45.32
-51.34
-58.12
-64.84
-70.23
-72.79
-71.22
-64.83
-53.86
-39.53
-23.7
-8.29
5.25
16.2
24.57
30.71
35.06
37.95
39.61
40.3
40.35
40.13
39.87
39.54
38.92
37.66
35.54
32.64
29.34
26.21
23.82
22.49
22.28
22.88
23.84
24.6
24.69
23.84
22.01
19.43
16.38
13.17
9.95
6.7
3.24
-0.59
-4.9
-9.6
-14.49
-19.33
-23.9
-28.08
-31.86
-35.31
-38.69
-42.39
-46.89
-52.54
-59.26
-66.29
-72.23
-75.29
-73.93
-67.38
-56.0
-41.17
-24.91
-9.19
4.54
15.65
24.11
30.34
34.78
37.78
39.65
40.64
41.07
41.27
41.4
41.41
41.06
40.03
38.08
35.3
31.99
28.72
26.02
24.29
23.62
23.83
24.47
25.01
24.95
23.97
22.07
19.51
16.68
13.92
11.39
8.97
6.36
3.22
-0.61
-5.11
-10.06
-15.12
-19.99
-24.47
-28.49
-32.12
-35.56
-39.12
-43.22
-48.27
-54.48
-61.5
-68.4
-73.6
-75.38
-72.37
-64.15
-51.41
-35.77
-19.26
-3.71
9.65
20.28
28.19
33.66
37.05
38.78
39.26
38.95
38.26
37.43
36.5
35.33
33.71
31.46
28.62
25.4
22.25
19.7
18.18
17.91
18.72
20.05
21.21
21.55
20.76
18.93
16.43
13.7
10.97
8.17
5.01
1.19
-3.39
-8.51
-13.71
-18.51
-22.63
-26.08
-29.17
-32.39
-36.22
-41.07
-47.1
-54.12
-61.43
-67.8
-71.67
-71.5
-66.34
-56.26
-42.35
-26.48
-10.66
3.51
15.2
24.26
31.0
35.81
38.96
40.66
41.11
40.66
39.69
38.56
37.43
36.2
34.6
32.38
29.53
26.36
23.44
21.33
20.39
20.55
21.38
22.19
22.39
21.64
19.96
17.67
15.13
12.6
10.04
7.23
3.85
-0.27
-5.04
-10.18
-15.31
-20.13
-24.52
-28.59
-32.58
-36.84
-41.73
-47.57
-54.47
-62.09
-69.43
-74.92
-76.76
-73.55
-64.88
-51.58
-35.47
-18.83
-3.54
9.31
19.49
27.35
33.34
37.8
40.88
42.73
43.61
43.89
43.96
43.96
43.77
43.02
41.31
38.5
34.82
30.87
27.4
25.03
23.96
24.01
24.63
25.16
25.08
24.13
22.33
19.92
17.15
14.23
11.32
8.4
5.41
2.21
-1.35
-5.4
-9.95
-14.84
-19.8
-24.52
-28.83
-32.72
-36.46
-40.49
-45.26
-51.06
-57.78
-64.79
-70.91
-74.57
-74.27
-69.03
-58.89
-44.88
-28.86
-12.83
1.59
13.5
22.77
29.72
34.78
38.27
40.49
41.72
42.32
42.66
42.93
43.11
42.89
41.95
40.1
37.44
34.31
31.23
28.68
26.92
26.03
25.83
26.07
26.34
26.25
25.48
23.85
21.38
18.29
14.93
11.63
8.59
5.79
3.02
-0.05
-3.71
-8.07
-13.0
-18.18
-23.21
-27.75
-31.66
-35.01
-38.12
-41.39
-45.3
-50.16
-56.03
-62.48
-68.51
-72.63
-73.27
-69.25
-60.29
-47.19
-31.62
-15.58
-0.8
11.65
21.43
28.66
33.7
36.89
38.55
39.05
38.79
38.18
37.51
36.85
36.05
34.85
33.07
30.69
27.94
25.17
22.83
21.28
20.74
21.2
22.4
23.84
24.9
25.05
23.96
21.65
18.46
14.9
11.43
8.29
5.44
2.58
-0.61
-4.38
-8.74
-13.48
-18.24
-22.68
-26.55
-29.86
-32.84
-35.9
-39.58
-44.36
-50.42
-57.51
-64.71
-70.6
-73.51
-72.03
-65.55
-54.47
-40.16
-24.49
-9.34
3.97
14.79
23.09
29.16
33.38
36.06
37.48
37.97
37.91
37.63
37.28
36.76
35.79
34.08
31.52
28.33
24.96
22.0
19.96
19.08
19.27
20.12
21.06
21.57
21.31
20.21
18.45
16.35
14.13
11.87
9.41
6.5
2.86
-1.58
-6.71
-12.19
-17.59
-22.55
-26.88
-30.63
-34.16
-38.0
-42.73
-48.71
-55.88
-63.55
-70.44
-74.9
-75.33
-70.78
-61.26
-47.85
-32.34
-16.72
-2.55
9.31
18.72
25.95
31.35
35.22
37.76
39.23
39.96
40.36
40.76
41.19
41.44
41.11
39.83
37.52
34.37
30.87
27.64
25.2
23.86
23.6
24.08
24.75
24.99
24.36
22.67
20.13
17.18
14.28
11.69
9.29
6.71
3.52
-0.52
-5.34
-10.59
-15.86
-20.82
-25.35
-29.53
-33.54
-37.63
-42.11
-47.32
-53.47
-60.43
-67.42
-72.99
-75.35
-72.98
-65.25
-52.78
-37.26
-20.87
-5.56
7.51
18.03
26.27
32.65
37.46
40.78
42.74
43.62
43.84
43.86
43.85
43.69
42.99
41.41
38.87
35.66
32.33
29.49
27.54
26.59
26.47
26.86
27.35
27.55
27.16
25.99
23.99
21.31
18.21
15.02
11.96
9.03
6.06
2.74
-1.14
-5.68
-10.71
-15.94
-21.04
-25.71
-29.85
-33.53
-37.01
-40.68
-45.0
-50.34
-56.8
-63.97
-70.79
-75.73
-77.09
-73.61
-64.97
-51.93
-36.17
-19.71
-4.35
8.76
19.22
27.15
32.88
36.73
38.99
40.02
40.26
40.15
40.05
39.97
39.64
38.6
36.51
33.34
29.53
25.73
22.67
20.81
20.23
20.64
21.51
22.29
22.54
22.04
20.77
18.87
16.58
14.1
11.55
8.86
5.81
2.17
-2.18
-7.18
-12.52
-17.84
-22.8
-27.24
-31.2
-34.89
-38.67
-42.94
-48.06
-54.11
-60.78
-67.12
-71.76
-73.15
-70.09
-62.1
-49.76
-34.48
-18.15
-2.62
10.74
21.22
28.76
33.74
36.73
38.31
38.97
39.03
38.71
38.1
37.19
35.91
34.17
31.92
29.24
26.39
23.75
21.71
20.53
20.23
20.51
20.87
20.81
20.0
18.43
16.34
14.04
11.67
9.17
6.25
2.63
-1.79
-6.87
-12.24
-17.48
-22.31
-26.67
-30.7
-34.67
-38.9
-43.73
-49.41
-55.91
-62.78
-68.92
-72.83
-72.91
-68.12
-58.41
-44.89
-29.38
-13.85
0.21
12.1
21.74
29.33
35.09
39.11
41.53
42.62
42.87
42.76
42.6
42.38
41.81
40.53
38.31
35.23
31.65
28.14
25.28
23.48
22.82
23.01
23.48
23.59
22.92
21.34
19.04
16.39
13.65
10.89
7.97
4.65
0.77
-3.61
-8.36
-13.19
-17.92
-22.4
-26.62
-30.64
-34.61
-38.82
-43.66
-49.45
-56.26
-63.65
-70.51
-75.29
-76.35
-72.54
-63.7
-50.69
-35.18
-19.08
-4.02
8.97
19.52
27.71
33.83
38.19
41.09
42.88
43.89
44.44
44.67
44.59
44.04
42.87
40.96
38.35
35.26
32.01
29.07
26.85
25.7
25.71
26.62
27.93
28.94
29.05
27.94
25.69
22.61
19.15
15.61
12.15
8.7
5.14
1.29
-2.91
-7.51
-12.42
-17.48
-22.44
-27.09
-31.26
-34.98
-38.51
-42.33
-46.96
-52.71
-59.53
-66.69
-72.9
-76.52
-76.04
-70.6
-60.37
-46.51
-30.82
-15.16
-0.95
11.07
20.75
28.28
33.92
37.86
40.27
41.41
41.67
41.44
41.02
40.46
39.6
38.17
36.01
33.2
30.07
27.15
24.97
23.87
23.89
24.73
25.93
26.92
27.22
26.53
24.82
22.23
19.07
15.65
12.22
8.83
5.41
1.75
-2.33
-6.87
-11.77
-16.79
-21.66
-26.17
-30.25
-33.96
-37.48
-41.11
-45.18
-50.02
-55.76
-62.09
-68.1
-72.35
-73.23
-69.48
-60.77
-47.85
-32.38
-16.37
-1.58
10.94
20.87
28.36
33.76
37.34
39.35
40.06
39.85
39.12
38.21
37.25
36.15
34.71
32.79
30.41
27.82
25.38
23.45
22.28
21.88
22.06
22.42
22.56
22.11
20.87
18.84
16.25
13.36
10.43
7.5
4.48
1.11
-2.85
-7.45
-12.52
-17.74
-22.74
-27.3
-31.39
-35.19
-39.04
-43.34
-48.47
-54.58
-61.39
-68.06
-73.19
-75.16
-72.67
-65.23
-53.4
-38.68
-22.94
-7.89
5.32
16.2
24.76
31.23
35.89
39.09
41.14
42.43
43.27
43.82
44.08
43.86
42.95
41.2
38.64
35.46
32.04
28.85
26.28
24.62
23.92
24.0
24.44
24.76
24.51
23.42
21.46
18.83
15.84
12.78
9.81
6.89
3.85
0.45
-3.45
-7.82
-12.52
-17.29
-21.89
-26.17
-30.14
-33.9
-37.72
-41.93
-46.88
-52.76
-59.4
-66.07
-71.49
-74.11
-72.57
-66.2
-55.32
-41.19
-25.62
-10.41
3.13
14.31
23.07
29.67
34.46
37.81
39.99
41.28
41.96
42.29
42.37
42.17
41.51
40.21
38.15
35.41
32.3
29.27
26.75
25.07
24.27
24.2
24.51
24.79
24.65
23.86
22.33
20.15
17.5
14.61
11.69
8.84
6.06
3.23
0.16
-3.37
-7.5
-12.2
-17.28
-22.33
-26.98
-30.94
-34.22
-37.16
-40.33
-44.39
-49.77
-56.44
-63.68
-70.16
-74.17
-74.15
-69.2
-59.4
-45.84
-30.25
-14.48
-0.04
12.15
21.7
28.72
33.51
36.54
38.35
39.42
40.08
40.48
40.53
40.03
38.84
36.92
34.41
31.54
28.58
25.82
23.53
21.95
21.21
21.26
21.83
22.48
22.7
22.15
20.69
18.43
15.71
12.86
10.1
7.42
4.62
1.41
-2.44
-6.96
-11.93
-16.95
-21.59
-25.57
-28.92
-31.96
-35.23
-39.27
-44.46
-50.8
-57.89
-64.78
-70.15
-72.47
-70.48
-63.56
-52.11
-37.43
-21.42
-5.99
7.4
18.06
25.92
31.3
34.68
36.52
37.23
37.25
36.95
36.56
36.1
35.41
34.23
32.38
29.9
27.05
24.25
21.95
20.5
20.03
20.39
21.21
21.96
22.18
21.55
20.04
17.83
15.22
12.43
9.53
6.44
2.94
-1.14
-5.85
-11.01
-16.31
-21.36
-25.83
-29.61
-32.85
-35.96
-39.51
-44.06
-49.93
-56.97
-64.4
-70.85
-74.66
-74.3
-68.91
-58.64
-44.64
-28.71
-12.76
1.69
13.82
23.39
30.63
35.86
39.42
41.63
42.84
43.42
43.67
43.73
43.57
42.95
41.63
39.44
36.47
33.03
29.63
26.76
24.8
23.88
23.87
24.4
25.02
25.28
24.82
23.49
21.29
18.46
15.31
12.11
9.0
5.86
2.41
-1.67
-6.47
-11.81
-17.26
-22.34
-26.76
-30.53
-33.93
-37.42
-41.41
-46.26
-52.1
-58.77
-65.67
-71.69
-75.35
-75.18
-70.21
-60.37
-46.66
-30.81
-14.79
-0.23
11.9
21.33
28.29
33.28
36.79
39.21
40.86
41.94
42.58
42.88
42.86
42.44
41.55
40.04
37.88
35.16
32.16
29.31
27.03
25.61
25.09
25.27
25.71
26.0
25.83
25.01
23.51
21.4
18.79
15.82
12.62
9.27
5.77
2.09
-1.88
-6.21
-10.93
-15.91
-20.94
-25.75
-30.15
-34.05
-37.52
-40.84
-44.39
-48.62
-53.86
-60.09
-66.7
-72.47
-75.74
-74.94
-69.13
-58.43
-44.0
-27.68
-11.42
3.24
15.42
24.9
31.86
36.69
39.79
41.56
42.39
42.57
42.34
41.8
40.94
39.7
38.0
35.81
33.23
30.5
27.98
26.05
24.91
24.61
24.92
25.49
25.97
26.07
25.63
24.58
22.87
20.49
17.53
14.15
10.57
7.01
3.54
0.06
-3.63
-7.74
-12.29
-17.1
-21.8
-26.07
-29.74
-32.91
-35.93
-39.27
-43.38
-48.54
-54.8
-61.73
-68.4
-73.4
-75.15
-72.37
-64.56
-52.28
-37.01
-20.72
-5.24
8.13
18.83
26.87
32.55
36.27
38.35
39.15
38.98
38.19
37.09
35.84
34.44
32.75
30.61
27.97
24.98
22.04
19.67
18.26
17.99
18.65
19.73
20.61
20.77
19.93
18.19
15.87
13.35
10.88
8.45
5.83
2.7
-1.17
-5.76
-10.76
-15.8
-20.54
-24.84
-28.82
-32.74
-36.89
-41.55
-46.95
-53.15
-59.9
-66.48
-71.61
-73.7
-71.38
-63.99
-52.06
-37.12
-21.22
-6.22
6.68
17.13
25.27
31.43
35.88
38.76
40.27
40.79
40.8
40.73
40.7
40.52
39.82
38.25
35.74
32.56
29.21
26.3
24.3
23.38
23.41
23.99
24.6
24.75
24.1
22.56
20.25
17.46
14.48
11.46
8.39
5.02
1.07
-3.61
-8.94
-14.54
-19.9
-24.58
-28.42
-31.64
-34.74
-38.36
-43.01
-48.99
-56.15
-63.85
-70.9
-75.73
-76.73
-72.73
-63.47
-49.8
-33.49
-16.71
-1.34
11.44
21.3
28.55
33.79
37.56
40.23
42.04
43.19
43.87
44.24
44.31
43.94
42.89
40.96
38.18
34.83
31.43
28.53
26.58
25.7
25.74
26.29
26.84
26.91
26.19
24.56
22.11
19.11
15.9
12.78
9.83
6.92
3.75
-0.02
-4.53
-9.69
-15.11
-20.35
-25.02
-29.0
-32.39
-35.51
-38.78
-42.64
-47.5
-53.58
-60.71
-68.09
-74.31
-77.56
-76.3
-69.74
-58.31
-43.47
-27.25
-11.58
2.24
13.65
22.65
29.45
34.29
37.35
38.89
39.27
38.97
38.35
37.59
36.54
34.93
32.48
29.21
25.43
21.7
18.63
16.6
15.68
15.58
15.82
15.9
15.5
14.5
12.99
11.1
8.9
6.3
3.09
-0.95
-5.92
-11.69
-17.9
-24.07
-29.78
-34.82
-39.35
-43.74
-48.44
-53.8
-59.9
-66.44
-72.59
-77.12
-78.47
-75.19
-66.4
-52.21
-33.85
-13.4
6.74
24.52
38.66
48.79
55.14
58.3
58.99
57.92
55.78
53.26
50.88
48.9
47.26
45.63
43.55
40.66
36.9
32.55
28.16
24.44
21.94
20.85
20.97
21.69
22.28
22.14
20.99
18.9
16.22
13.33
10.55
7.9
5.19
2.1
-1.66
-6.15
-11.15
-16.3
-21.28
-25.91
-30.28
-34.67
-39.42
-44.81
-51.04
-58.08
-65.54
-72.56
-77.79
-79.66
-76.85
-68.88
-56.36
-40.88
-24.45
-8.92
4.55
15.51
24.05
30.46
35.03
38.08
39.98
41.17
42.04
42.78
43.25
43.11
42.04
39.93
36.96
33.53
30.11
27.05
24.55
22.64
21.24
20.21
19.34
18.43
17.3
15.84
14.0
11.77
9.05
5.72
1.66
-3.13
-8.44
-13.91
-19.16
-23.93
-28.21
-32.26
-36.52
-41.46
-47.39
-54.29
-61.58
-68.11
-72.33
-72.68
-68.15
-58.7
-45.32
-29.75
-13.87
0.77
13.31
23.49
31.43
37.39
41.65
44.54
46.44
47.77
48.83
49.63
49.95
49.38
47.61
44.63
40.8
36.72
33.07
30.27
28.5
27.53
26.97
26.41
25.53
24.22
22.51
20.5
18.27
15.82
13.05
9.82
6.01
1.56
-3.45
-8.8
-14.2
-19.38
-24.21
-28.68
-32.97
-37.41
-42.38
-48.24
-55.09
-62.51
-69.43
-74.25
-75.23
-71.17
-61.86
-48.28
-32.27
-15.93
-0.96
11.72
21.87
29.68
35.42
39.35
41.74
42.95
43.42
43.58
43.57
43.22
42.16
40.01
36.71
32.6
28.37
24.79
22.43
21.44
21.55
22.21
22.85
23.03
22.59
21.57
20.13
18.38
16.35
13.92
10.97
7.35
3.06
-1.77
-6.9
-12.01
-16.84
-21.23
-25.22
-29.05
-33.05
-37.62
-43.09
-49.5
-56.5
-63.17
-68.18
-70.02
-67.47
-60.05
-48.22
-33.36
-17.34
-1.97
11.35
21.93
29.66
34.83
37.92
39.4
39.73
39.24
38.17
36.63
34.64
32.16
29.15
25.7
22.04
18.53
15.56
13.45
12.33
12.15
12.61
13.29
13.7
13.45
12.28
10.17
7.24
3.75
0.0
-3.7
-7.09
-9.83
-11.65
-12.35
-11.87
-10.42
-8.43
-6.53
-5.45
-5.79
-8.03
-12.35
-18.49
-25.7
-32.73
-38.09
-40.33
-38.57
-32.69
-23.44
-12.14
-0.33
10.73
20.18
27.66
33.13
36.75
38.73
39.36
38.96
37.89
36.48
34.91
33.23
31.39
29.28
26.87
24.28
21.76
19.63
18.09
17.23
16.9
16.83
16.67
16.12
14.96
13.18
10.89
8.27
5.51
2.74
-0.03
-2.91
-6.06
-9.62
-13.61
-17.86
-22.05
-25.89
-29.19
-32.05
-34.86
-38.14
-42.37
-47.73
-53.87
-59.88
-64.46
-66.23
-64.13
-57.78
-47.61
-34.75
-20.71
-6.97
5.28
15.38
23.14
28.71
32.41
34.62
35.74
36.12
36.08
35.83
35.44
34.81
33.73
32.0
29.55
26.54
23.34
20.44
18.29
17.1
16.84
17.17
17.62
17.73
17.19
15.96
14.18
12.12
9.99
7.85
5.58
2.96
-0.17
-3.85
-7.9
-12.06
-16.08
-19.83
-23.32
-26.68
-30.1
-33.78
-37.91
-42.64
-47.9
-53.29
-57.99
-60.83
-60.64
-56.65
-48.76
-37.69
-24.73
-11.34
1.19
12.05
20.84
27.47
32.07
34.83
36.05
36.14
35.53
34.62
33.64
32.59
31.29
29.47
26.97
23.83
20.37
17.1
14.5
12.9
12.35
12.6
13.23
13.83
14.08
13.85
13.12
11.94
10.36
8.4
6.06
3.33
0.22
-3.23
-6.92
-10.7
-14.38
-17.77
-20.77
-23.38
-25.81
-28.37
-31.44
-35.37
-40.3
-46.0
-51.79
-56.58
-59.07
-58.19
-53.38
-44.83
-33.45
-20.55
-7.54
4.37
14.39
22.11
27.5
30.74
32.17
32.22
31.34
29.94
28.34
26.67
24.93
23.0
20.79
18.31
15.7
13.26
11.32
10.13
9.68
9.77
10.05
10.18
9.98
9.39
8.48
7.31
5.86
4.03
1.66
-1.31
-4.85
-8.8
-12.88
-16.83
-20.43
-23.61
-26.46
-29.22
-32.25
-35.91
-40.42
-45.68
-51.12
-55.7
-58.14
-57.29
-52.5
-43.88
-32.32
-19.2
-6.02
5.99
16.06
23.9
29.56
33.32
35.45
36.3
36.24
35.64
34.79
33.85
32.76
31.32
29.31
26.61
23.36
19.91
16.77
14.37
12.91
12.29
12.2
12.16
11.82
10.92
9.46
7.49
5.14
2.49
-0.44
-3.66
-7.13
-10.74
-14.35
-17.84
-21.15
-24.29
-27.33
-30.36
-33.51
-36.98
-41.06
-45.98
-51.62
-57.33
-61.85
-63.62
-61.28
-54.35
-43.39
-29.87
-15.69
-2.48
8.78
17.82
24.81
30.04
33.7
35.91
36.84
36.81
36.27
35.57
34.87
34.07
32.84
30.89
28.16
24.9
21.62
18.84
16.93
15.94
15.65
15.66
15.63
15.29
14.55
13.43
11.98
10.29
8.39
6.32
4.05
1.46
-1.6
-5.24
-9.46
-14.1
-18.83
-23.28
-27.21
-30.58
-33.57
-36.63
-40.26
-44.88
-50.6
-56.98
-62.99
-67.14
-67.9
-64.23
-55.96
-43.92
-29.6
-14.8
-0.96
10.98
20.67
28.13
33.54
37.16
39.22
40.06
40.04
39.6
39.0
38.39
37.64
36.47
34.6
31.87
28.43
24.71
21.32
18.87
17.69
17.75
18.59
19.53
19.87
19.21
17.51
15.09
12.44
10.01
8.0
6.31
4.59
2.38
-0.65
-4.6
-9.28
-14.35
-19.37
-24.0
-28.15
-31.93
-35.68
-39.84
-44.79
-50.7
-57.31
-63.84
-69.09
-71.57
-70.01
-63.71
-52.91
-38.71
-22.8
-6.98
7.26
19.01
27.87
33.91
37.46
39.02
39.2
38.61
37.74
36.82
35.83
34.48
32.5
29.71
26.23
22.46
18.95
16.24
14.71
14.42
15.14
16.35
17.47
18.03
17.73
16.62
14.88
12.79
10.44
7.78
4.59
0.68
-4.0
-9.24
-14.65
-19.82
-24.43
-28.46
-32.09
-35.68
-39.73
-44.63
-50.55
-57.27
-64.0
-69.45
-72.06
-70.44
-63.89
-52.71
-38.13
-22.02
-6.26
7.69
19.06
27.74
33.96
38.14
40.62
41.74
41.81
41.13
39.95
38.4
36.49
34.14
31.31
28.09
24.76
21.68
19.22
17.59
16.78
16.61
16.75
16.89
16.75
16.16
15.05
13.33
10.95
7.84
4.01
-0.46
-5.34
-10.39
-15.34
-20.05
-24.51
-28.85
-33.29
-38.13
-43.75
-50.39
-57.99
-65.92
-72.88
-77.17
-77.13
-71.78
-61.23
-46.64
-29.93
-13.08
2.32
15.36
25.76
33.63
39.28
43.05
45.33
46.51
46.97
46.99
46.67
45.9
44.46
42.16
38.98
35.21
31.41
28.21
26.04
24.98
24.66
24.49
23.94
22.72
20.89
18.69
16.32
13.79
10.94
7.54
3.43
-1.32
-6.55
-11.99
-17.41
-22.63
-27.57
-32.23
-36.81
-41.7
-47.33
-54.05
-61.72
-69.53
-76.03
-79.43
-78.14
-71.4
-59.54
-43.9
-26.39
-8.92
7.02
20.56
31.4
39.56
45.24
48.75
50.53
51.11
51.04
50.72
50.32
49.69
48.5
46.42
43.32
39.42
35.27
31.62
29.08
27.95
28.02
28.67
29.13
28.77
27.33
24.97
22.06
18.97
15.84
12.55
8.83
4.44
-0.68
-6.38
-12.36
-18.28
-23.85
-28.9
-33.41
-37.58
-41.79
-46.6
-52.53
-59.73
-67.73
-75.23
-80.4
-81.34
-76.82
-66.71
-52.07
-34.8
-17.0
-0.43
13.82
25.29
33.96
40.02
43.81
45.76
46.44
46.41
46.07
45.58
44.73
43.17
40.62
37.08
32.91
28.69
25.13
22.73
21.7
21.88
22.8
23.87
24.51
24.4
23.45
21.79
19.62
17.05
14.01
10.35
5.93
0.77
-4.92
-10.8
-16.52
-21.86
-26.83
-31.67
-36.74
-42.53
-49.34
-57.11
-65.23
-72.38
-76.86
-77.02
-71.82
-61.28
-46.49
-29.31
-11.81
4.29
17.88
28.52
36.3
41.52
44.64
46.13
46.4
45.8
44.57
42.83
40.61
37.94
34.87
31.54
28.15
24.95
22.19
20.05
18.62
17.86
17.58
17.51
17.37
16.92
15.96
14.35
11.95
8.67
4.48
-0.46
-5.87
-11.41
-16.77
-21.85
-26.7
-31.55
-36.74
-42.64
-49.53
-57.41
-65.78
-73.51
-78.93
-80.29
-76.31
-66.73
-52.46
-35.36
-17.56
-0.94
13.34
24.82
33.63
40.12
44.66
47.67
49.51
50.51
50.9
50.76
50.0
48.46
46.03
42.8
39.05
35.18
31.66
28.82
26.82
25.54
24.73
23.97
22.93
21.42
19.48
17.24
14.85
12.27
9.27
5.53
0.8
-4.87
-11.11
-17.36
-23.08
-27.94
-31.95
-35.45
-39.0
-43.27
-48.8
-55.74
-63.66
-71.38
-77.14
-79.05
-75.73
-66.81
-53.07
-36.27
-18.49
-1.59
13.15
25.18
34.43
41.11
45.57
48.21
49.52
50.02
50.17
50.27
50.3
50.01
49.05
47.14
44.24
40.58
36.67
33.16
30.57
29.16
28.81
29.05
29.24
28.78
27.35
24.94
21.81
18.34
14.8
11.31
7.74
3.9
-0.35
-5.05
-10.08
-15.29
-20.45
-25.46
-30.21
-34.71
-39.09
-43.58
-48.58
-54.43
-61.22
-68.44
-74.83
-78.64
-78.09
-72.07
-60.7
-45.31
-28.07
-11.21
3.63
15.75
25.22
32.49
37.94
41.76
44.03
44.92
44.8
44.13
43.3
42.39
41.16
39.28
36.55
33.12
29.48
26.34
24.27
23.54
23.97
25.06
26.12
26.56
26.03
24.47
22.12
19.31
16.33
13.31
10.15
6.59
2.33
-2.76
-8.56
-14.65
-20.51
-25.66
-29.93
-33.47
-36.72
-40.27
-44.65
-50.2
-56.87
-64.08
-70.66
-75.02
-75.49
-70.9
-61.06
-46.89
-30.2
-13.16
2.37
15.22
24.98
31.82
36.23
38.78
40.07
40.57
40.61
40.38
39.85
38.89
37.35
35.16
32.4
29.29
26.2
23.55
21.72
20.9
21.02
21.7
22.39
22.54
21.81
20.15
17.76
14.95
11.94
8.8
5.39
1.5
-3.01
-8.12
-13.58
-19.04
-24.15
-28.75
-32.97
-37.21
-42.01
-47.86
-54.9
-62.69
-70.15
-75.69
-77.65
-74.79
-66.78
-54.3
-38.91
-22.49
-6.79
7.0
18.3
27.07
33.56
38.14
41.23
43.24
44.56
45.45
46.0
46.17
45.74
44.52
42.41
39.48
36.02
32.49
29.38
27.14
25.96
25.67
25.78
25.67
24.78
22.87
20.13
16.97
13.86
11.05
8.43
5.65
2.3
-1.87
-6.82
-12.27
-17.77
-22.94
-27.55
-31.62
-35.37
-39.18
-43.52
-48.79
-55.16
-62.34
-69.39
-74.84
-76.97
-74.36
-66.44
-53.73
-37.74
-20.51
-3.99
10.42
22.04
30.79
36.95
40.94
43.21
44.23
44.49
44.39
44.14
43.75
43.0
41.63
39.42
36.42
32.88
29.27
26.1
23.8
22.59
22.4
22.92
23.6
23.92
23.42
21.91
19.51
16.56
13.5
10.58
7.84
5.03
1.76
-2.27
-7.07
-12.41
-17.83
-22.92
-27.42
-31.33
-34.88
-38.4
-42.35
-47.17
-53.12
-60.04
-67.16
-73.07
-76.02
-74.47
-67.66
-56.01
-40.97
-24.57
-8.73
5.19
16.6
25.52
32.23
37.03
40.13
41.7
42.05
41.57
40.69
39.73
38.75
37.55
35.84
33.42
30.39
27.16
24.35
22.52
21.91
22.37
23.38
24.31
24.62
24.01
22.49
20.24
17.57
14.69
11.73
8.66
5.32
1.52
-2.87
-7.82
-13.1
-18.35
-23.19
-27.35
-30.83
-33.94
-37.22
-41.37
-46.87
-53.82
-61.63
-69.01
-74.14
-75.23
-71.09
-61.6
-47.78
-31.53
-15.0
0.04
12.49
22.01
28.76
33.16
35.67
36.8
37.03
36.81
36.47
36.12
35.61
34.67
33.01
30.52
27.32
23.81
20.53
18.0
16.54
16.15
16.49
17.04
17.31
16.99
16.05
14.65
12.9
10.78
8.06
4.52
0.09
-5.01
-10.35
-15.43
-19.99
-24.03
-27.86
-31.9
-36.58
-42.2
-48.84
-56.29
-63.86
-70.36
-74.21
-73.95
-68.64
-58.38
-44.33
-28.36
-12.44
1.91
13.91
23.41
30.64
35.89
39.44
41.58
42.67
43.11
43.22
43.11
42.63
41.48
39.48
36.63
33.2
29.68
26.54
24.15
22.63
21.85
21.49
21.13
20.4
19.09
17.2
14.86
12.29
9.61
6.76
3.57
-0.14
-4.45
-9.2
-14.04
-18.59
-22.59
-26.04
-29.2
-32.52
-36.55
-41.75
-48.36
-56.16
-64.34
-71.51
-75.96
-76.06
-70.89
-60.56
-46.28
-29.98
-13.71
0.95
13.16
22.81
30.15
35.56
39.33
41.74
43.08
43.77
44.2
44.57
44.79
44.45
43.07
40.38
36.5
32.0
27.7
24.31
22.25
21.43
21.42
21.61
21.46
20.67
19.19
17.15
14.8
12.27
9.59
6.65
3.25
-0.72
-5.23
-10.06
-14.88
-19.42
-23.6
-27.59
-31.7
-36.37
-41.92
-48.53
-56.01
-63.74
-70.61
-75.13
-75.76
-71.47
-62.13
-48.67
-32.83
-16.62
-1.7
10.94
21.03
28.77
34.49
38.47
41.0
42.39
43.09
43.56
44.06
44.49
44.5
43.59
41.47
38.24
34.41
30.66
27.57
25.41
24.01
23.02
22.07
20.94
19.64
18.28
16.96
15.62
14.05
11.95
9.06
5.27
0.66
-4.49
-9.83
-15.03
-19.86
-24.27
-28.37
-32.37
-36.62
-41.49
-47.29
-54.06
-61.3
-67.88
-72.15
-72.41
-67.51
-57.4
-43.24
-27.02
-10.94
3.34
15.01
24.01
30.7
35.51
38.73
40.54
41.14
40.81
39.85
38.47
36.69
34.35
31.32
27.65
23.68
19.93
16.96
15.08
14.28
14.23
14.51
14.74
14.72
14.36
13.59
12.25
10.1
6.96
2.83
-2.08
-7.36
-12.57
-17.35
-21.57
-25.31
-28.83
-32.57
-37.05
-42.69
-49.64
-57.44
-64.94
-70.43
-72.09
-68.7
-60.06
-47.14
-31.76
-15.92
-1.24
11.36
21.66
29.83
36.15
40.85
44.12
46.16
47.19
47.39
46.81
45.39
43.08
39.9
36.11
32.12
28.38
25.28
23.02
21.54
20.6
19.86
19.0
17.85
16.36
14.59
12.58
10.31
7.65
4.44
0.61
-3.73
-8.35
-13.0
-17.47
-21.68
-25.69
-29.66
-33.87
-38.66
-44.4
-51.28
-58.98
-66.49
-72.15
-74.11
-70.98
-62.46
-49.5
-33.96
-17.97
-3.19
9.5
19.96
28.39
34.97
39.79
42.92
44.62
45.33
45.62
45.82
45.94
45.68
44.59
42.43
39.24
35.46
31.69
28.51
26.29
25.11
24.73
24.73
24.62
23.99
22.66
20.63
18.1
15.29
12.29
9.09
5.49
1.32
-3.53
-8.93
-14.55
-19.98
-24.84
-29.01
-32.6
-36.08
-40.02
-44.98
-51.23
-58.51
-65.93
-72.07
-75.24
-74.08
-67.91
-57.03
-42.64
-26.46
-10.23
4.67
17.4
27.67
35.46
40.97
44.54
46.57
47.56
47.95
48.03
47.88
47.34
46.15
44.07
41.07
37.34
33.33
29.56
26.54
24.53
23.56
23.34
23.44
23.38
22.79
21.47
19.43
16.82
13.91
10.9
7.92
4.88
1.59
-2.17
-6.5
-11.24
-16.11
-20.76
-24.93
-28.57
-31.88
-35.19
-38.93
-43.44
-48.97
-55.38
-62.07
-67.86
-71.22
-70.66
-65.3
-55.22
-41.53
-25.99
-10.44
3.68
15.58
25.04
32.18
37.22
40.36
41.88
42.12
41.51
40.46
39.21
37.75
35.93
33.51
30.4
26.75
22.94
19.52
17.0
15.66
15.47
16.08
16.93
17.46
17.32
16.43
14.92
13.02
10.9
8.54
5.82
2.56
-1.27
-5.58
-10.13
-14.66
-18.98
-23.02
-26.77
-30.3
-33.7
-37.19
-41.09
-45.76
-51.36
-57.51
-63.2
-66.87
-66.95
-62.41
-53.23
-40.42
-25.7
-10.82
2.84
14.5
23.94
31.17
36.26
39.35
40.68
40.63
39.77
38.6
37.44
36.28
34.89
32.96
30.33
27.15
23.84
20.96
18.98
18.04
17.96
18.31
18.58
18.43
17.69
16.4
14.71
12.75
10.61
8.3
5.72
2.73
-0.82
-4.99
-9.71
-14.66
-19.46
-23.78
-27.49
-30.74
-33.93
-37.6
-42.18
-47.81
-54.15
-60.34
-65.11
-67.08
-65.2
-59.04
-49.01
-36.23
-22.15
-8.19
4.59
15.57
24.48
31.27
36.04
39.02
40.55
41.04
40.91
40.41
39.63
38.52
36.9
34.67
31.84
28.55
25.12
21.96
19.43
17.77
16.99
16.86
17.02
17.1
16.81
16.05
14.81
13.14
11.09
8.7
6.0
3.02
-0.24
-3.78
-7.65
-11.85
-16.29
-20.75
-24.97
-28.73
-32.03
-35.05
-38.24
-42.05
-46.82
-52.49
-58.46
-63.62
-66.55
-65.97
-61.1
-51.99
-39.56
-25.28
-10.79
2.52
13.83
22.82
29.59
34.39
37.51
39.23
39.85
39.7
39.08
38.21
37.12
35.68
33.69
31.05
27.9
24.57
21.56
19.32
18.11
17.94
18.56
19.53
20.36
20.57
19.87
18.21
15.79
13.02
10.26
7.73
5.38
2.96
0.17
-3.17
-7.02
-11.2
-15.46
-19.61
-23.55
-27.28
-30.8
-34.19
-37.63
-41.39
-45.82
-51.06
-56.83
-62.22
-65.85
-66.24
-62.37
-54.11
-42.27
-28.35
-14.04
-0.71
10.77
20.04
27.05
31.89
34.75
35.94
35.92
35.18
34.16
33.04
31.74
30.03
27.69
24.75
21.47
18.32
15.79
14.2
13.64
13.9
14.65
15.45
15.92
15.76
14.83
13.16
10.9
8.3
5.53
2.64
-0.47
-3.94
-7.85
-12.1
-16.43
-20.53
-24.19
-27.43
-30.5
-33.8
-37.72
-42.53
-48.22
-54.43
-60.37
-64.9
-66.7
-64.68
-58.33
-47.98
-34.74
-20.18
-5.9
6.86
17.38
25.45
31.18
34.89
36.94
37.76
37.79
37.38
36.75
35.91
34.67
32.81
30.23
27.08
23.77
20.81
18.65
17.5
17.2
17.35
17.51
17.33
16.71
15.71
14.41
12.81
10.76
8.08
4.67
0.54
-4.12
-8.99
-13.79
-18.34
-22.59
-26.6
-30.51
-34.56
-39.06
-44.36
-50.61
-57.66
-64.78
-70.72
-73.96
-73.12
-67.49
-57.29
-43.62
-28.13
-12.54
1.77
13.97
23.77
31.22
36.58
40.15
42.25
43.24
43.46
43.2
42.63
41.72
40.33
38.28
35.51
32.21
28.82
25.9
23.95
23.17
23.37
24.09
24.71
24.72
23.84
22.12
19.79
17.14
14.36
11.44
8.25
4.57
0.26
-4.61
-9.85
-15.14
-20.25
-25.04
-29.55
-33.96
-38.56
-43.68
-49.61
-56.46
-63.89
-71.01
-76.38
-78.4
-75.77
-67.99
-55.6
-40.03
-23.15
-6.74
7.92
20.19
29.87
37.1
42.13
45.32
47.07
47.85
48.03
47.85
47.34
46.36
44.7
42.23
39.0
35.3
31.63
28.55
26.5
25.64
25.72
26.24
26.57
26.19
24.88
22.75
20.11
17.35
14.67
12.06
9.27
5.96
1.85
-3.1
-8.67
-14.4
-19.81
-24.56
-28.59
-32.14
-35.67
-39.78
-44.94
-51.38
-58.87
-66.55
-73.02
-76.6
-75.81
-69.88
-59.07
-44.57
-28.18
-11.73
3.34
16.2
26.52
34.31
39.73
43.07
44.72
45.19
44.96
44.36
43.46
42.1
40.02
37.12
33.51
29.6
25.92
22.98
21.11
20.38
20.65
21.55
22.58
23.25
23.14
22.03
19.99
17.26
14.18
10.96
7.57
3.79
-0.6
-5.67
-11.22
-16.78
-21.96
-26.54
-30.71
-34.91
-39.68
-45.46
-52.29
-59.79
-67.07
-72.83
-75.62
-74.22
-67.98
-57.13
-42.81
-26.73
-10.7
3.81
15.93
25.45
32.53
37.54
40.84
42.74
43.49
43.37
42.61
41.38
39.73
37.62
35.0
31.86
28.42
25.01
22.1
20.02
18.9
18.54
18.56
18.54
18.18
17.38
16.17
14.58
12.53
9.86
6.41
2.16
-2.7
-7.85
-12.94
-17.75
-22.3
-26.8
-31.6
-37.05
-43.44
-50.82
-58.87
-66.75
-73.18
-76.61
-75.69
-69.72
-58.97
-44.61
-28.4
-12.2
2.55
15.02
24.97
32.58
38.21
42.22
44.97
46.8
48.02
48.83
49.27
49.14
48.14
45.98
42.6
38.34
33.86
29.94
27.17
25.75
25.38
25.42
25.25
24.4
22.79
20.61
18.18
15.73
13.32
10.77
7.82
4.21
-0.17
-5.24
-10.76
-16.37
-21.79
-26.85
-31.61
-36.3
-41.27
-46.88
-53.3
-60.39
-67.46
-73.3
-76.4
-75.35
-69.37
-58.63
-44.29
-28.11
-11.9
2.94
15.66
26.04
34.16
40.2
44.4
47.1
48.7
49.61
50.14
50.31
49.96
48.79
46.62
43.46
39.62
35.61
32.01
29.28
27.65
27.08
27.24
27.64
27.77
27.26
25.93
23.84
21.15
18.12
14.97
11.86
8.88
5.93
2.8
-0.76
-4.96
-9.79
-15.01
-20.25
-25.12
-29.41
-33.18
-36.7
-40.41
-44.78
-50.12
-56.49
-63.48
-70.13
-74.97
-76.42
-73.2
-64.93
-52.23
-36.63
-20.07
-4.37
9.25
20.21
28.49
34.36
38.18
40.36
41.35
41.6
41.49
41.2
40.7
39.75
38.08
35.57
32.34
28.76
25.37
22.68
21.04
20.51
20.92
21.86
22.85
23.46
23.37
22.44
20.75
18.44
15.74
12.79
9.58
6.06
2.1
-2.32
-7.14
-12.14
-17.07
-21.71
-25.94
-29.82
-33.57
-37.46
-41.87
-47.11
-53.25
-59.98
-66.44
-71.24
-72.79
-69.84
-61.91
-49.64
-34.55
-18.63
-3.68
9.08
19.21
26.79
32.17
35.72
37.75
38.56
38.48
37.85
36.94
35.84
34.45
32.51
29.86
26.57
23.01
19.76
17.38
16.17
16.03
16.54
17.14
17.39
17.08
16.23
14.94
13.29
11.21
8.6
5.36
1.46
-2.97
-7.72
-12.57
-17.31
-21.79
-25.96
-29.94
-34.0
-38.49
-43.8
-50.09
-57.14
-64.13
-69.72
-72.3
-70.5
-63.69
-52.31
-37.71
-21.8
-6.42
7.14
18.25
26.81
33.06
37.32
39.94
41.32
41.93
42.19
42.33
42.29
41.77
40.45
38.16
35.05
31.51
28.07
25.14
22.98
21.6
20.83
20.39
19.94
19.18
17.91
16.09
13.85
11.4
8.88
6.3
3.46
0.11
-3.94
-8.61
-13.62
-18.56
-23.13
-27.24
-31.1
-35.12
-39.77
-45.41
-52.09
-59.41
-66.38
-71.57
-73.44
-70.79
-63.24
-51.41
-36.75
-21.09
-6.05
7.27
18.37
27.16
33.75
38.3
41.1
42.56
43.22
43.63
44.07
44.5
44.49
43.56
41.32
37.81
33.51
29.16
25.51
23.06
21.87
21.6
21.7
21.62
21.01
19.78
18.06
16.03
13.78
11.3
8.45
5.1
1.15
-3.31
-8.1
-12.89
-17.44
-21.61
-25.46
-29.2
-33.08
-37.43
-42.5
-48.49
-55.35
-62.65
-69.4
-74.14
-75.27
-71.53
-62.61
-49.29
-33.35
-16.88
-1.75
10.94
20.9
28.36
33.79
37.58
40.02
41.32
41.71
41.44
40.69
39.57
38.0
35.89
33.15
29.83
26.21
22.71
19.84
18.01
17.35
17.66
18.45
19.1
19.14
18.39
16.98
15.2
13.27
11.17
8.63
5.34
1.12
-3.93
-9.41
-14.84
-19.84
-24.28
-28.26
-32.08
-36.1
