1560782316.00
64.000000
-0.00
-0.00
-0.00
-0.00
-0.00
-0.00
-0.00
-0.00
-0.00
-0.00
0.00
0.01
0.01
-0.00
-0.03
-0.05
-0.05
0.00
0.13
0.36
0.66
1.01
1.37
1.72
2.06
2.40
2.79
3.24
3.80
4.42
5.06
5.66
6.20
6.68
7.15
7.68
8.31
9.14
10.09
11.04
11.88
12.56
13.14
13.76
14.65
15.96
17.91
20.32
22.90
25.38
27.58
29.57
31.68
34.32
37.81
42.54
48.15
54.10
59.83
64.97
69.58
74.14
79.35
85.71
93.76
103.00
112.61
121.72
129.76
136.76
143.33
150.79
157.82
166.65
177.88
191.61
206.66
220.14
227.75
224.83
208.01
176.36
132.24
79.46
22.37
-35.76
-93.35
-150.12
-206.18
-261.27
-314.62
-364.82
-410.95
-452.31
-488.22
-517.72
-539.33
-551.30
-551.93
-540.28
-516.29
-481.23
-437.18
-386.60
-331.89
-275.10
-217.90
-161.72
-107.91
-57.64
-12.11
27.88
62.01
90.46
113.76
132.50
147.14
157.83
164.63
167.59
167.10
163.92
158.99
153.23
147.21
141.06
134.53
127.24
118.75
108.78
97.24
84.54
71.84
61.12
54.76
54.61
61.06
72.45
85.61
96.91
103.70
105.11
102.04
96.22
89.25
82.07
74.69
66.90
58.87
51.19
44.63
39.73
36.49
34.44
32.87
31.16
29.07
26.68
24.29
22.13
20.23
18.40
16.31
13.72
10.60
7.22
4.08
1.62
0.11
-0.50
-0.53
-0.43
-0.58
-1.25
-2.42
-3.81
-4.91
-5.14
-4.07
-1.75
1.24
3.91
5.25
4.70
2.44
-0.71
-3.69
-5.74
-6.66
-6.75
-6.56
-6.43
-6.41
-6.30
-5.93
-5.32
-4.71
-4.40
-4.56
-5.15
-5.85
-6.29
-6.16
-5.42
-4.23
-2.91
-1.79
-1.09
-0.86
-1.02
-1.44
-1.97
-2.50
-2.88
-2.94
-2.49
-1.44
0.20
2.28
4.51
6.56
8.15
9.15
9.58
9.58
9.33
9.01
8.73
8.56
8.53
8.61
8.80
9.03
9.15
9.03
8.54
7.62
6.33
4.84
3.21
1.50
-0.27
-2.10
-3.96
-5.79
-7.50
-9.00
-10.22
-11.16
-11.81
-12.17
-12.24
-12.03
-11.58
-11.00
-10.40
-9.91
-9.57
-9.35
-9.14
-8.84
-8.36
-7.74
-7.07
-6.49
-6.08
-5.88
-5.81
-5.75
-5.52
-4.94
-3.84
-2.17
0.01
2.46
4.83
6.70
7.79
7.96
7.34
6.22
4.96
3.87
3.10
2.64
2.38
2.14
1.84
1.46
1.08
0.81
0.77
0.98
1.43
2.10
2.94
3.91
4.94
5.94
6.76
7.28
7.42
7.13
6.50
5.66
4.75
3.85
2.98
2.12
1.25
0.36
-0.49
-1.27
-1.96
-2.56
-3.11
-3.60
-4.09
-4.59
-5.18
-5.93
-6.87
-7.98
-9.16
-10.30
-11.28
-12.10
-12.86
-13.75
-14.91
-16.36
-17.97
-19.40
-20.25
-20.13
-18.79
-16.23
-12.69
-8.60
-4.42
-0.51
2.92
5.80
8.15
9.94
11.12
11.66
11.63
11.25
10.78
10.46
10.36
10.42
10.47
10.41
10.22
9.97
9.83
9.87
10.10
10.48
10.96
11.46
11.91
12.22
12.26
11.95
11.28
10.32
9.19
7.99
6.80
5.59
4.34
3.06
1.79
0.62
-0.42
-1.37
-2.32
-3.36
-4.54
-5.83
-7.15
-8.38
-9.44
-10.34
-11.10
-11.83
-12.66
-13.76
-15.21
-17.00
-18.97
-20.80
-22.04
-22.25
-21.13
-18.57
-14.79
-10.22
-5.47
-1.10
2.46
5.06
6.77
7.77
8.30
8.53
8.56
8.49
8.40
8.39
8.48
8.61
8.65
8.43
7.90
7.10
6.22
5.50
5.14
5.23
5.70
6.36
6.96
7.30
7.27
6.87
6.19
5.36
4.47
3.56
2.61
1.55
0.36
-0.92
-2.19
-3.31
-4.20
-4.92
-5.60
-6.48
-7.74
-9.44
-11.54
-13.86
-16.20
-18.33
-20.05
-21.14
-21.34
-20.46
-18.39
-15.22
-11.25
-6.92
-2.66
1.16
4.35
6.83
8.57
9.63
10.07
10.04
9.74
9.37
9.05
8.80
8.53
8.15
7.67
7.22
6.99
7.15
7.73
8.60
9.56
10.40
11.00
11.30
11.34
11.11
10.66
9.99
9.11
8.05
6.86
5.57
4.26
2.96
1.74
0.60
-0.50
-1.63
-2.86
-4.21
-5.70
-7.29
-8.92
-10.51
-11.98
-13.25
-14.30
-15.22
-16.23
-17.56
-19.39
-21.67
-24.05
-25.96
-26.79
-26.10
-23.79
-20.11
-15.57
-10.76
-6.15
-2.02
1.53
4.48
6.85
8.67
9.97
10.83
11.35
11.64
11.75
11.68
11.41
10.95
10.42
9.96
9.73
9.82
10.24
10.89
11.68
12.50
13.22
13.72
13.88
13.62
12.97
12.04
11.05
10.22
9.64
9.27
8.92
8.37
7.44
6.10
4.50
2.81
1.21
-0.20
-1.46
-2.66
-3.87
-5.10
-6.31
-7.45
-8.52
-9.58
-10.66
-11.75
-12.79
-13.71
-14.55
-15.41
-16.51
-18.06
-20.13
-22.61
-25.17
-27.34
-28.64
-28.67
-27.24
-24.36
-20.25
-15.23
-9.73
-4.21
0.86
5.11
8.26
10.27
11.33
11.77
11.93
12.00
12.03
11.92
11.57
11.01
10.37
9.83
9.52
9.52
9.77
10.19
10.71
11.22
11.68
12.03
12.25
12.33
12.29
12.09
11.70
11.09
10.25
9.23
8.11
6.94
5.72
4.42
2.96
1.36
-0.33
-2.01
-3.57
-4.98
-6.28
-7.57
-8.92
-10.39
-11.97
-13.63
-15.33
-17.10
-18.93
-20.82
-22.62
-24.03
-24.59
-23.85
-21.47
-17.50
-12.33
-6.65
-1.23
3.33
6.77
9.13
10.71
11.80
12.59
13.12
13.32
13.17
12.71
12.13
11.60
11.28
11.19
11.28
11.45
11.65
11.88
12.21
12.65
13.18
13.73
14.19
14.45
14.43
14.06
13.32
12.22
10.84
9.27
7.67
6.13
4.73
3.44
2.20
0.88
-0.60
-2.28
-4.14
-6.08
-7.95
-9.60
-10.90
-11.83
-12.46
-12.94
-13.52
-14.43
-15.86
-17.83
-20.15
-22.40
-23.98
-24.25
-22.77
-19.40
-14.47
-8.65
-2.80
2.25
5.94
8.10
8.91
8.78
8.15
7.32
6.37
5.27
3.95
2.42
0.76
-0.91
-2.45
-3.76
-4.70
-5.22
-5.49
-6.00
-7.65
-11.50
-18.41
-28.54
-41.14
-54.68
-67.26
-77.20
-83.37
-85.21
-82.62
-75.70
-64.65
-49.88
-32.10
-12.39
7.97
27.67
45.68
61.27
74.13
84.19
91.55
96.34
98.74
98.91
97.15
93.87
89.58
84.87
80.22
75.89
71.85
67.85
63.54
58.71
53.38
47.79
42.41
37.81
34.57
33.17
33.86
36.55
40.74
45.61
50.17
53.47
54.84
53.92
50.69
45.32
38.07
29.20
19.06
8.14
-2.89
-13.15
-21.81
-28.19
-32.05
-33.57
-33.36
-32.14
-30.63
-29.27
-28.21
-27.36
-26.56
-25.69
-24.81
-24.09
-23.71
-23.72
-24.00
-24.31
-24.44
-24.28
-23.90
-23.47
-23.19
-23.21
-23.56
-24.18
-24.97
-25.79
-26.52
-27.08
-27.46
-27.73
-28.02
-28.46
-29.19
-30.34
-32.01
-34.20
-36.67
-38.93
-40.31
-40.15
-38.07
-34.15
-28.89
-23.01
-17.16
-11.76
-7.02
-2.96
0.37
2.87
4.46
5.16
5.20
4.89
4.56
4.42
4.49
4.64
4.70
4.52
4.13
3.69
3.43
3.52
4.00
4.78
5.65
6.37
6.79
6.85
6.58
6.04
5.30
4.37
3.28
2.04
0.71
-0.64
-1.96
-3.23
-4.50
-5.80
-7.18
-8.59
-9.98
-11.30
-12.55
-13.82
-15.28
-17.07
-19.21
-21.50
-23.55
-24.83
-24.85
-23.31
-20.23
-15.94
-11.00
-6.02
-1.53
2.13
4.87
6.78
8.06
8.90
9.44
9.71
9.69
9.38
8.84
8.21
7.65
7.26
7.07
7.02
7.05
7.13
7.27
7.49
7.78
8.05
8.19
8.07
7.66
7.00
6.21
5.44
4.76
4.16
3.51
2.69
1.58
0.18
-1.44
-3.18
-4.97
-6.78
-8.63
-10.51
-12.39
-14.19
-15.83
-17.28
-18.63
-20.00
-21.56
-23.35
-25.24
-26.93
-27.98
-27.96
-26.57
-23.76
-19.75
-14.97
-9.97
-5.25
-1.20
1.99
4.27
5.71
6.51
6.88
7.05
7.19
7.38
7.62
7.81
7.85
7.68
7.34
6.92
6.55
6.36
6.46
6.95
7.84
9.08
10.50
11.85
12.87
13.35
13.24
12.58
11.57
10.37
9.11
7.83
6.47
4.97
3.30
1.51
-0.32
-2.05
-3.65
-5.15
-6.69
-8.39
-10.26
-12.24
-14.16
-15.88
-17.37
-18.74
-20.16
-21.81
-23.75
-25.95
-28.24
-30.36
-31.98
-32.73
-32.32
-30.52
-27.34
-23.00
-17.91
-12.59
-7.51
-3.03
0.74
3.85
6.49
8.89
11.20
13.50
15.72
17.79
19.63
21.22
22.51
23.51
24.16
24.37
24.10
23.38
22.35
21.24
20.32
19.80
19.76
20.10
20.58
20.90
20.75
19.98
18.58
16.74
14.73
12.80
11.07
9.46
7.77
5.76
3.28
0.36
-2.84
-6.08
-9.19
-12.12
-14.92
-17.71
-20.60
-23.65
-26.77
-29.69
-31.95
-33.06
-32.58
-30.37
-26.64
-21.89
-16.70
-11.57
-6.79
-2.47
1.34
4.55
7.00
8.56
9.20
9.08
8.44
7.55
6.65
5.91
5.42
5.25
5.39
5.82
6.45
7.24
8.15
9.24
10.55
12.15
14.02
16.12
18.35
20.58
22.65
24.34
25.39
25.57
24.72
22.84
20.15
16.99
13.73
10.65
7.91
5.46
3.22
1.11
-0.92
-2.86
-4.72
-6.53
-8.36
-10.28
-12.31
-14.41
-16.51
-18.58
-20.66
-22.87
-25.31
-27.96
-30.58
-32.69
-33.72
-33.15
-30.71
-26.48
-20.89
-14.59
-8.30
-2.62
2.09
5.74
8.42
10.36
11.74
12.69
13.26
13.49
13.47
13.34
13.28
13.36
13.54
13.64
13.52
13.22
12.95
13.03
13.71
14.98
16.56
17.98
18.84
18.92
18.32
17.31
16.18
15.13
14.20
13.36
12.55
11.73
10.89
9.95
8.84
7.46
5.79
3.92
2.02
0.30
-1.12
-2.24
-3.21
-4.24
-5.49
-7.06
-8.87
-10.75
-12.53
-14.06
-15.29
-16.29
-17.24
-18.38
-19.97
-22.14
-24.83
-27.68
-30.07
-31.26
-30.58
-27.75
-22.92
-16.68
-9.83
-3.15
2.82
7.77
11.66
14.57
16.61
17.93
18.66
18.97
18.98
18.78
18.43
17.89
17.11
16.07
14.88
13.81
13.20
13.36
14.38
16.07
17.98
19.59
20.50
20.59
20.01
19.03
17.87
16.57
15.03
13.10
10.74
8.06
5.29
2.72
0.52
-1.23
-2.59
-3.66
-4.61
-5.73
-7.44
-10.15
-14.04
-18.79
-23.57
-27.38
-29.45
-29.75
-29.03
-28.43
-28.92
-30.68
-33.00
-34.57
-34.17
-31.17
-25.86
-19.16
-12.18
-5.83
-0.52
3.77
7.42
10.85
14.42
18.23
22.12
25.65
28.20
29.15
28.16
25.31
21.22
16.86
13.35
11.60
12.05
14.60
18.66
23.41
28.00
31.80
34.51
36.12
36.80
36.82
36.46
36.00
35.72
35.90
36.72
38.12
39.78
41.19
41.87
41.59
40.52
39.17
38.28
38.59
40.69
44.84
50.86
58.08
65.41
71.60
75.70
77.36
77.03
75.67
74.25
73.16
71.91
69.28
63.87
54.68
41.53
25.11
6.72
-12.18
-30.39
-47.27
-62.82
-77.67
-92.77
-109.24
-127.96
-149.23
-172.57
-196.60
-219.28
-238.29
-251.63
-257.98
-256.96
-248.87
-234.41
-214.31
-189.32
-160.34
-128.66
-96.09
-64.66
-36.28
-12.19
7.19
22.08
33.03
40.64
45.38
47.68
48.06
47.18
45.80
44.50
43.59
43.02
42.47
41.52
39.87
37.47
34.57
31.56
28.81
26.46
24.34
22.02
19.01
15.01
10.13
4.86
-0.06
-3.82
-5.81
-5.75
-3.70
-0.02
4.75
9.98
15.05
19.45
22.82
25.03
26.21
26.66
26.73
26.71
26.76
26.83
26.80
26.58
26.11
25.42
24.61
23.77
23.01
22.37
21.92
21.63
21.46
21.30
21.05
20.64
20.03
19.26
18.35
17.36
16.32
15.25
14.20
13.18
12.21
11.27
10.30
9.25
8.07
6.82
5.55
4.34
3.18
2.01
0.71
-0.77
-2.45
-4.21
-5.94
-7.52
-8.93
-10.24
-11.60
-13.16
-15.11
-17.53
-20.36
-23.36
-26.10
-28.00
-28.54
-27.37
-24.47
-20.11
-14.80
-9.11
-3.56
1.47
5.76
9.21
11.81
13.62
14.72
15.25
15.32
15.04
14.50
13.80
13.03
12.30
11.72
11.37
11.29
11.47
11.84
12.34
12.91
13.48
13.93
14.17
14.06
13.56
12.76
11.78
10.78
9.82
8.85
7.75
6.41
4.79
2.94
0.95
-1.10
-3.18
-5.23
-7.21
-9.09
-10.86
-12.65
-14.61
-16.93
-19.65
-22.63
-25.45
-27.55
-28.31
-27.27
-24.30
-19.63
-13.83
-7.64
-1.75
3.37
7.57
10.87
13.44
15.39
16.78
17.61
17.93
17.89
17.63
17.31
17.00
16.72
16.44
16.18
16.01
16.09
16.52
17.33
18.39
19.47
20.27
20.58
20.38
19.78
18.97
18.10
17.20
16.22
15.06
13.71
12.21
10.68
9.24
7.92
6.69
5.49
4.22
2.83
1.28
-0.44
-2.31
-4.29
-6.28
-8.18
-9.90
-11.41
-12.77
-14.10
-15.55
-17.30
-19.45
-22.00
-24.80
-27.54
-29.74
-30.82
-30.28
-27.86
-23.64
-18.08
-11.91
-5.86
-0.51
3.85
7.19
9.64
11.36
12.47
13.08
13.34
13.40
13.45
13.59
13.85
14.10
14.20
14.08
13.79
13.53
13.55
14.07
15.11
16.54
18.08
19.41
20.27
20.52
20.15
19.27
18.06
16.72
15.40
14.21
13.19
12.33
11.55
10.80
9.97
9.01
7.84
6.44
4.84
3.11
1.37
-0.33
-1.96
-3.57
-5.19
-6.82
-8.42
-9.94
-11.36
-12.78
-14.33
-16.20
-18.47
-21.07
-23.68
-25.84
-27.00
-26.75
-24.87
-21.50
-16.98
-11.86
-6.67
-1.81
2.41
5.86
8.46
10.18
11.09
11.31
11.08
10.65
10.24
9.99
9.87
9.81
9.72
9.55
9.36
9.26
9.34
9.65
10.15
10.76
11.35
11.81
12.07
12.07
11.78
11.15
10.14
8.73
7.01
5.08
3.14
1.33
-0.29
-1.73
-3.10
-4.48
-5.90
-7.33
-8.68
-9.91
-11.02
-12.10
-13.26
-14.66
-16.40
-18.45
-20.64
-22.60
-23.84
-23.92
-22.55
-19.73
-15.75
-11.07
-6.17
-1.47
2.76
6.37
9.26
11.35
12.60
13.09
13.02
12.65
12.20
11.82
11.54
11.26
10.93
10.52
10.11
9.81
9.73
9.92
10.31
10.75
11.09
11.23
11.15
10.88
10.48
9.99
9.37
8.55
7.48
6.18
4.75
3.36
2.17
1.22
0.49
-0.16
-0.86
-1.66
-2.60
-3.63
-4.74
-5.95
-7.29
-8.77
-10.33
-11.87
-13.29
-14.59
-15.83
-17.24
-19.01
-21.20
-23.62
-25.80
-27.17
-27.15
-25.47
-22.18
-17.65
-12.45
-7.17
-2.27
1.92
5.27
7.80
9.62
10.88
11.67
12.11
12.28
12.30
12.27
12.30
12.41
12.56
12.66
12.69
12.72
12.93
13.50
14.48
15.72
16.93
17.82
18.21
18.13
17.72
17.14
16.50
15.82
15.07
14.26
13.42
12.58
11.72
10.75
9.53
7.95
5.98
3.66
1.09
-1.64
-4.51
-7.51
-10.68
-14.01
-17.42
-20.81
-24.04
-27.08
-29.95
-32.75
-35.55
-38.29
-40.63
-42.06
-41.98
-39.99
-36.02
-30.45
-23.95
-17.25
-11.02
-5.69
-1.45
1.66
3.73
4.94
5.50
5.60
5.39
4.91
4.15
3.00
1.40
-0.65
-3.11
-5.85
-8.70
-11.49
-14.08
-16.37
-18.33
-20.06
-21.77
-23.68
-25.96
-28.61
-31.41
-33.99
-35.93
-36.94
-36.91
-35.88
-34.01
-31.41
-28.11
-24.16
-19.66
-14.90
-10.28
-6.27
-3.29
-1.57
-1.14
-1.73
-2.84
-3.81
-3.99
-2.89
-0.32
3.51
8.13
12.91
17.27
20.77
23.18
24.45
24.67
24.06
22.86
21.32
19.60
17.81
15.93
13.92
11.74
9.41
7.09
5.00
3.46
2.75
3.09
4.53
6.94
10.04
13.52
17.13
20.79
24.59
28.72
33.31
38.28
43.32
47.97
51.80
54.53
56.10
56.54
55.90
54.17
51.29
47.37
42.66
37.55
32.35
27.06
21.38
14.87
7.39
-0.63
-8.16
-13.97
-17.16
-17.65
-16.22
-14.11
-12.40
-11.52
-11.19
-10.70
-9.42
-7.22
-4.46
-1.77
0.36
1.79
2.71
3.45
4.20
4.89
5.26
5.06
4.20
2.86
1.41
0.20
-0.58
-1.06
-1.59
-2.63
-4.48
-7.17
-10.37
-13.59
-16.32
-18.31
-19.56
-20.31
-20.92
-21.65
-22.64
-23.86
-25.16
-26.42
-27.54
-28.55
-29.54
-30.67
-32.12
-34.04
-36.44
-39.18
-41.84
-43.81
-44.37
-42.94
-39.32
-33.73
-26.81
-19.41
-12.29
-5.99
-0.63
3.90
7.86
11.48
14.92
18.20
21.23
23.91
26.07
27.57
28.32
28.33
27.76
26.88
25.95
25.18
24.63
24.21
23.76
23.15
22.26
21.05
19.50
17.56
15.21
12.49
9.52
6.56
3.93
1.83
0.32
-0.84
-2.03
-3.69
-6.11
-9.36
-13.23
-17.33
-21.23
-24.54
-27.07
-28.88
-30.23
-31.51
-33.12
-35.24
-37.80
-40.41
-42.51
-43.52
-43.06
-40.97
-37.42
-32.77
-27.55
-22.31
-17.60
-13.82
-11.18
-9.60
-8.78
-8.25
-7.62
-6.58
-5.06
-3.16
-1.01
1.33
3.87
6.68
9.85
13.45
17.55
22.27
27.73
33.96
40.81
47.87
54.54
60.16
64.26
66.64
67.39
66.76
65.03
62.37
58.77
54.07
48.13
40.95
32.75
23.99
15.24
7.03
-0.34
-6.83
-12.59
-17.81
-22.64
-27.14
-31.38
-35.49
-39.61
-43.78
-47.78
-51.05
-52.89
-52.65
-50.05
-45.34
-39.23
-32.75
-26.88
-22.34
-19.41
-17.97
-17.52
-17.37
-16.81
-15.19
-12.10
-7.41
-1.28
5.86
13.45
20.91
27.73
33.59
38.28
41.76
44.03
45.13
45.11
44.06
42.09
39.39
36.15
32.56
28.71
24.61
20.19
15.37
10.18
4.72
-0.82
-6.25
-11.42
-16.21
-20.49
-24.07
-26.77
-28.51
-29.47
-30.09
-30.94
-32.45
-34.67
-37.14
-39.03
-39.46
-37.90
-34.37
-29.46
-24.09
-19.17
-15.28
-12.62
-11.10
-10.52
-10.72
-11.59
-12.99
-14.71
-16.45
-18.00
-19.28
-20.35
-21.30
-22.04
-22.23
-21.34
-18.83
-14.47
-8.42
-1.27
6.12
12.90
18.41
22.31
24.56
25.34
24.99
23.83
22.22
20.47
18.85
17.52
16.54
15.80
15.06
14.08
12.70
10.93
8.96
7.08
5.48
4.19
3.03
1.63
-0.37
-3.15
-6.57
-10.15
-13.13
-14.76
-14.51
-12.30
-8.50
-3.82
0.96
5.19
8.53
10.95
12.66
13.94
15.07
16.25
17.57
19.03
20.61
22.23
23.90
25.62
27.38
29.14
30.74
31.97
32.62
32.60
31.86
30.44
28.40
25.78
22.66
19.26
15.90
13.00
10.91
9.81
9.61
10.01
10.58
10.90
10.66
9.62
7.66
4.73
0.96
-3.38
-7.84
-11.90
-15.13
-17.37
-18.72
-19.50
-20.03
-20.45
-20.62
-20.15
-18.62
-15.72
-11.50
-6.28
-0.62
4.96
10.08
14.66
18.79
22.64
26.18
29.16
31.08
31.43
29.95
26.80
22.57
18.08
14.10
11.14
9.39
8.74
8.92
9.60
10.41
10.97
11.00
10.35
9.14
7.75
6.70
6.50
7.47
9.64
12.76
16.31
19.60
21.86
22.37
20.64
16.67
11.00
4.61
-1.43
-6.36
-9.99
-12.72
-15.27
-18.21
-21.67
-25.27
-28.34
-30.29
-30.89
-30.35
-29.22
-28.06
-27.25
-26.84
-26.61
-26.24
-25.48
-24.27
-22.71
-21.00
-19.35
-17.90
-16.70
-15.75
-15.01
-14.48
-14.20
-14.24
-14.69
-15.64
-17.09
-18.97
-21.14
-23.45
-25.75
-27.95
-29.97
-31.70
-33.03
-33.88
-34.28
-34.40
-34.57
-35.04
-35.99
-37.33
-38.84
-40.22
-41.19
-41.56
-41.20
-39.99
-37.80
-34.61
-30.49
-25.68
-20.48
-15.20
-10.03
-5.09
-0.41
4.00
8.12
11.89
15.16
17.72
19.28
19.56
18.40
15.88
12.35
8.31
4.33
0.81
-2.00
-4.09
-5.48
-6.11
-5.82
-4.37
-1.65
2.22
6.80
11.56
16.04
20.03
23.67
27.30
31.27
35.79
40.83
46.19
51.60
56.77
61.34
64.94
67.24
68.25
68.61
69.72
73.46
81.63
95.15
113.46
134.38
154.62
170.71
180.03
181.40
175.13
162.56
145.41
125.33
103.68
81.62
60.11
39.87
21.30
4.35
-11.37
-26.44
-41.25
-55.82
-69.71
-82.19
-92.39
-99.56
-103.25
-103.47
-100.80
-96.32
-91.32
-86.98
-83.96
-82.26
-81.38
-80.64
-79.56
-78.04
-76.24
-74.43
-72.75
-71.20
-69.71
-68.35
-67.31
-66.81
-66.84
-67.06
-66.75
-65.11
-61.47
-55.53
-47.41
-37.55
-26.54
-15.04
-3.68
6.99
16.64
25.21
32.89
40.03
46.88
53.44
59.41
64.33
67.85
69.87
70.56
70.22
68.99
66.74
63.18
58.01
51.11
42.71
33.24
23.25
13.26
3.63
-5.36
-13.52
-20.64
-26.55
-31.15
-34.41
-36.47
-37.57
-38.03
-38.14
-38.12
-38.01
-37.67
-36.82
-35.15
-32.45
-28.70
-24.11
-19.09
-14.09
-9.46
-5.43
-2.03
0.76
3.02
4.82
6.20
7.15
7.70
7.80
7.42
6.57
5.31
3.78
2.19
0.75
-0.41
-1.25
-1.85
-2.36
-2.97
-3.78
-4.84
-6.10
-7.44
-8.74
-9.87
-10.79
-11.53
-12.19
-12.94
-13.93
-15.28
-16.95
-18.75
-20.32
-21.17
-20.82
-18.95
-15.51
-10.71
-4.98
1.11
7.05
12.38
16.86
20.39
23.04
24.97
26.40
27.50
28.37
29.05
29.52
29.72
29.60
29.07
28.04
26.47
24.43
22.11
19.84
17.90
16.38
15.06
13.50
11.14
7.61
2.85
-2.79
-8.73
-14.35
-19.24
-23.28
-26.62
-29.57
-32.40
-35.25
-38.01
-40.42
-42.10
-42.68
-41.86
-39.55
-35.78
-30.83
-25.17
-19.40
-14.08
-9.65
-6.32
-4.09
-2.85
-2.30
-2.18
-2.19
-2.13
-1.86
-1.37
-0.77
-0.32
-0.30
-0.85
-1.85
-2.99
-3.81
-3.89
-3.04
-1.42
0.32
1.31
0.99
-0.84
-3.93
-7.63
-11.27
-14.15
-16.07
-17.45
-19.08
-21.31
-24.27
-27.82
-31.55
-35.05
-37.44
-38.04
-36.70
-33.69
-28.95
-22.65
-15.21
-7.12
1.05
9.72
19.53
30.86
43.79
58.65
75.04
91.61
106.38
117.06
122.94
124.30
122.10
112.40
94.23
70.17
45.31
27.25
15.50
8.00
2.79
-2.40
-8.34
-14.02
-17.97
-19.07
-16.94
-12.51
-6.56
-0.46
3.89
4.75
1.74
-4.55
-12.73
-20.97
-27.80
-31.61
-31.69
-28.45
-22.92
-15.96
-8.27
-0.42
7.08
13.56
18.86
22.98
25.81
27.17
26.77
23.98
18.12
9.00
-2.60
-14.35
-22.98
-25.25
-19.05
-4.24
17.14
41.28
63.60
79.95
87.62
85.83
75.62
59.47
40.50
21.79
5.72
-6.39
-14.45
-19.37
-22.76
-26.39
-31.75
-39.53
-49.49
-60.50
-70.98
-79.39
-84.72
-86.68
-85.57
-81.96
-76.49
-69.67
-61.94
-53.76
-45.61
-38.01
-31.31
-25.67
-21.02
-17.13
-13.75
-10.78
-8.31
-6.61
-5.95
-6.46
-8.01
-10.21
-12.52
-14.50
-15.83
-16.52
-16.68
-16.49
-16.06
-15.37
-14.33
-12.88
-10.99
-8.76
-6.34
-3.96
-1.85
-0.23
0.76
1.07
0.73
-0.21
-1.76
-3.97
-6.80
-10.05
-13.27
-15.86
-17.24
-17.06
-15.31
-12.30
-8.51
-4.38
-0.20
3.91
7.93
11.79
15.34
18.32
20.50
21.70
21.97
21.52
20.68
19.75
18.87
18.04
17.12
16.04
14.84
13.63
12.54
11.66
10.92
10.18
9.26
8.06
6.57
4.88
3.11
1.35
-0.37
-2.07
-3.83
-5.69
-7.61
-9.49
-11.16
-12.39
-12.97
-12.77
-11.71
-9.81
-7.22
-4.12
-0.81
2.42
5.31
7.67
9.41
10.55
11.16
11.26
10.88
10.00
8.63
6.87
4.90
2.97
1.37
0.28
-0.24
-0.27
-0.01
0.30
0.47
0.38
0.05
-0.47
-1.10
-1.82
-2.63
-3.57
-4.66
-5.89
-7.27
-8.80
-10.50
-12.32
-14.10
-15.51
-16.14
-15.56
-13.52
-10.09
-5.65
-0.81
3.81
7.72
10.75
12.89
14.31
15.13
15.40
15.15
14.41
13.31
12.04
10.79
9.68
8.71
7.80
6.88
5.93
5.00
4.17
3.51
3.02
2.64
2.24
1.72
0.98
0.08
-0.90
-1.88
-2.80
-3.71
-4.71
-5.99
-7.65
-9.70
-11.95
-14.05
-15.52
-15.86
-14.74
-12.12
-8.24
-3.62
1.11
5.43
8.98
11.65
13.51
14.67
15.25
15.32
14.88
13.98
12.66
11.07
9.35
7.71
6.27
5.07
4.10
3.28
2.58
2.02
1.61
1.30
0.92
0.21
-1.06
-2.96
-5.31
-7.77
-10.00
-11.81
-13.22
-14.46
-15.81
-17.43
-19.30
-21.15
-22.57
-23.07
-22.22
-19.73
-15.54
-9.85
-3.09
4.12
11.17
17.52
22.76
26.71
29.33
30.70
31.00
30.45
29.27
27.68
25.87
24.00
22.22
20.61
19.21
18.00
16.92
15.94
15.06
14.29
13.67
13.18
12.73
12.17
11.31
10.07
8.48
6.67
4.86
3.21
1.79
0.53
-0.73
-2.15
-3.83
-5.73
-7.67
-9.33
-10.37
-10.51
-9.54
-7.47
-4.47
-0.90
2.82
6.27
9.13
11.23
12.52
13.07
13.00
12.46
11.58
10.52
9.43
8.43
7.59
6.94
6.47
6.10
5.79
5.49
5.20
4.95
4.78
4.74
4.82
4.92
4.88
4.51
3.69
2.48
1.06
-0.28
-1.33
-2.02
-2.52
-3.07
-3.94
-5.24
-6.88
-8.63
-10.13
-11.02
-11.01
-9.94
-7.82
-4.88
-1.49
1.89
4.86
7.11
8.58
9.34
9.57
9.43
9.04
8.47
7.74
6.93
6.08
5.27
4.56
3.96
3.46
3.06
2.78
2.67
2.76
3.02
3.36
3.62
3.61
3.26
2.54
1.58
0.56
-0.36
-1.10
-1.69
-2.24
-2.89
-3.72
-4.77
-6.04
-7.48
-8.92
-10.12
-10.77
-10.57
-9.36
-7.20
-4.40
-1.38
1.41
3.67
5.28
6.25
6.68
6.67
6.31
5.70
4.95
4.16
3.42
2.77
2.20
1.65
1.13
0.64
0.26
0.06
0.09
0.29
0.56
0.78
0.83
0.67
0.32
-0.14
-0.65
-1.15
-1.62
-2.12
-2.69
-3.41
-4.30
-5.36
-6.54
-7.73
-8.79
-9.56
-9.84
-9.44
-8.27
-6.37
-3.92
-1.25
1.27
3.33
4.74
5.49
5.68
5.45
4.94
4.28
3.54
2.80
2.12
1.57
1.21
1.05
1.08
1.22
1.35
1.38
1.26
1.02
0.72
0.43
0.18
-0.07
-0.39
-0.86
-1.50
-2.27
-3.09
-3.85
-4.48
-4.96
-5.34
-5.74
-6.27
-7.02
-7.95
-8.91
-9.66
-9.96
-9.64
-8.65
-7.06
-5.03
-2.80
-0.58
1.38
2.90
3.90
4.36
4.33
3.93
3.29
2.53
1.77
1.09
0.56
0.22
0.06
0.07
0.21
0.45
0.77
1.13
1.49
1.77
1.91
1.86
1.65
1.31
0.87
0.32
-0.36
-1.23
-2.27
-3.42
-4.51
-5.39
-5.95
-6.19
-6.24
-6.29
-6.51
-6.96
-7.64
-8.45
-9.31
-10.12
-10.74
-10.97
-10.60
-9.42
-7.42
-4.81
-1.99
0.58
2.54
3.78
4.42
4.69
4.76
4.68
4.41
3.89
3.12
2.23
1.40
0.83
0.64
0.81
1.21
1.66
1.99
2.08
1.96
1.70
1.41
1.16
0.92
0.61
0.16
-0.42
-1.03
-1.56
-1.98
-2.37
-2.88
-3.63
-4.55
-5.47
-6.18
-6.56
-6.73
-6.95
-7.49
-8.52
-9.93
-11.46
-12.79
-13.63
-13.83
-13.33
-12.11
-10.15
-7.52
-4.37
-0.98
2.26
4.99
6.95
8.08
8.44
8.24
7.70
7.00
6.32
5.74
5.34
5.12
5.05
5.06
5.11
5.19
5.34
5.58
5.88
6.14
6.23
6.07
5.67
5.13
4.58
4.13
3.78
3.43
2.93
2.19
1.18
0.00
-1.16
-2.13
-2.80
-3.17
-3.37
-3.61
-4.11
-4.99
-6.22
-7.61
-8.89
-9.79
-10.09
-9.71
-8.67
-6.99
-4.80
-2.25
0.42
2.89
4.84
6.06
6.52
6.37
5.86
5.22
4.56
3.90
3.22
2.56
2.02
1.71
1.69
1.94
2.35
2.78
3.11
3.23
3.09
2.65
1.91
0.90
-0.29
-1.52
-2.71
-3.81
-4.85
-5.92
-7.08
-8.37
-9.74
-11.09
-12.34
-13.46
-14.52
-15.62
-16.83
-18.19
-19.63
-20.99
-22.08
-22.63
-22.35
-20.95
-18.21
-14.07
-8.72
-2.53
3.91
10.03
15.31
19.44
22.33
24.03
24.68
24.50
23.70
22.51
21.16
19.84
18.69
17.75
17.01
16.41
15.91
15.49
15.15
14.87
14.58
14.19
13.60
12.73
11.59
10.26
8.85
7.51
6.34
5.35
4.47
3.56
2.51
1.27
-0.09
-1.47
-2.73
-3.81
-4.71
-5.46
-6.11
-6.67
-7.23
-7.93
-8.92
-10.30
-11.91
-13.37
-14.09
-13.58
-11.62
-8.42
-4.50
-0.55
2.90
5.55
7.38
8.51
9.13
9.35
9.25
8.91
8.40
7.80
7.20
6.65
6.21
5.91
5.81
5.90
6.15
6.49
6.84
7.17
7.44
7.63
7.71
7.59
7.18
6.43
5.34
4.04
2.71
1.56
0.73
0.24
0.01
-0.16
-0.46
-1.00
-1.80
-2.78
-3.79
-4.71
-5.48
-6.10
-6.65
-7.22
-7.92
-8.85
-10.03
-11.38
-12.68
-13.58
-13.68
-12.69
-10.53
-7.39
-3.71
-0.01
3.26
5.81
7.55
8.56
8.95
8.84
8.30
7.42
6.35
5.28
4.42
3.94
3.86
4.11
4.51
4.90
5.19
5.33
5.36
5.30
5.17
4.97
4.67
4.26
3.70
3.02
2.24
1.40
0.53
-0.32
-1.15
-1.97
-2.77
-3.53
-4.22
-4.81
-5.26
-5.62
-5.97
-6.44
-7.16
-8.18
-9.36
-10.41
-10.96
-10.68
-9.44
-7.30
-4.52
-1.44
1.59
4.29
6.42
7.86
8.55
8.53
7.94
6.99
5.92
4.95
4.20
3.73
3.51
3.48
3.57
3.72
3.92
4.19
4.53
4.92
5.24
5.35
5.11
4.47
3.56
2.53
1.56
0.73
0.00
-0.68
-1.36
-2.03
-2.61
-3.08
-3.45
-3.79
-4.17
-4.62
-5.13
-5.66
-6.25
-6.99
-7.97
-9.21
-10.55
-11.64
-12.08
-11.51
-9.83
-7.25
-4.19
-1.19
1.32
3.13
4.27
4.91
5.26
5.45
5.52
5.47
5.27
4.94
4.52
4.09
3.70
3.41
3.25
3.23
3.30
3.43
3.59
3.74
3.85
3.91
3.86
3.67
3.32
2.84
2.31
1.77
1.26
0.75
0.18
-0.48
-1.19
-1.90
-2.51
-2.98
-3.34
-3.67
-4.05
-4.54
-5.10
-5.69
-6.23
-6.75
-7.29
-7.95
-8.71
-9.43
-9.82
-9.57
-8.51
-6.67
-4.37
-2.02
0.04
1.64
2.83
3.76
4.55
5.19
5.58
5.58
5.18
4.50
3.74
3.15
2.86
2.88
3.10
3.36
3.52
3.56
3.55
3.60
3.82
4.21
4.68
5.08
5.25
5.08
4.57
3.77
2.78
1.72
0.73
-0.09
-0.64
-0.89
-0.90
-0.80
-0.74
-0.87
-1.24
-1.84
-2.58
-3.40
-4.20
-4.96
-5.69
-6.44
-7.27
-8.23
-9.28
-10.29
-11.05
-11.30
-10.86
-9.69
-7.91
-5.79
-3.62
-1.67
-0.10
1.04
1.73
2.04
2.03
1.80
1.49
1.22
1.09
1.12
1.21
1.25
1.17
0.96
0.72
0.57
0.62
0.89
1.29
1.72
2.02
2.08
1.87
1.40
0.75
0.02
-0.69
-1.30
-1.78
-2.13
-2.40
-2.64
-2.93
-3.30
-3.77
-4.31
-4.87
-5.37
-5.77
-6.04
-6.22
-6.40
-6.67
-7.11
-7.70
-8.25
-8.50
-8.19
-7.14
-5.40
-3.25
-1.08
0.73
1.96
2.61
2.83
2.83
2.73
2.57
2.31
1.94
1.53
1.22
1.14
1.34
1.73
2.14
2.44
2.57
2.62
2.75
3.05
3.54
4.10
4.54
4.72
4.54
4.07
3.40
2.70
2.07
1.59
1.24
0.93
0.58
0.10
-0.54
-1.28
-2.03
-2.67
-3.13
-3.41
-3.56
-3.71
-3.99
-4.54
-5.44
-6.64
-7.98
-9.18
-9.92
-9.93
-9.10
-7.51
-5.40
-3.14
-1.06
0.56
1.56
1.88
1.57
0.76
-0.38
-1.62
-2.77
-3.71
-4.42
-4.95
-5.39
-5.76
-6.04
-6.17
-6.12
-5.92
-5.70
-5.54
-5.53
-5.67
-5.93
-6.33
-6.95
-7.86
-9.07
-10.45
-11.71
-12.53
-12.63
-11.92
-10.51
-8.65
-6.61
-4.61
-2.79
-1.17
0.22
1.35
2.16
2.61
2.68
2.42
1.88
1.08
-0.00
-1.37
-2.95
-4.48
-5.61
-5.94
-5.24
-3.52
-1.07
1.67
4.25
6.35
7.85
8.78
9.28
9.48
9.46
9.24
8.84
8.29
7.68
7.12
6.70
6.47
6.41
6.45
6.48
6.42
6.27
6.08
5.92
5.82
5.79
5.77
5.65
5.36
4.86
4.19
3.44
2.72
2.11
1.59
1.09
0.51
-0.19
-0.99
-1.83
-2.64
-3.38
-4.03
-4.64
-5.19
-5.67
-6.06
-6.37
-6.68
-7.14
-7.88
-8.93
-10.13
-11.11
-11.46
-10.81
-9.03
-6.29
-3.00
0.32
3.23
5.48
7.07
8.07
8.63
8.80
8.62
8.11
7.34
6.47
5.68
5.16
5.02
5.25
5.76
6.36
6.90
7.27
7.47
7.54
7.55
7.53
7.43
7.18
6.75
6.18
5.55
4.97
4.48
4.03
3.55
2.95
2.19
1.32
0.40
-0.52
-1.39
-2.18
-2.88
-3.46
-3.92
-4.27
-4.57
-4.88
-5.29
-5.87
-6.69
-7.79
-9.12
-10.50
-11.62
-12.11
-11.62
-10.04
-7.46
-4.24
-0.83
2.33
4.94
6.83
8.00
8.49
8.43
7.94
7.22
6.44
5.75
5.23
4.90
4.70
4.59
4.58
4.68
4.94
5.38
5.95
6.51
6.93
7.06
6.86
6.36
5.69
4.97
4.28
3.65
3.01
2.30
1.51
0.65
-0.20
-1.02
-1.79
-2.56
-3.34
-4.11
-4.81
-5.39
-5.86
-6.30
-6.86
-7.68
-8.75
-9.92
-10.87
-11.23
-10.69
-9.09
-6.55
-3.35
0.05
3.22
5.81
7.66
8.76
9.20
9.08
8.53
7.65
6.61
5.61
4.84
4.45
4.42
4.61
4.79
4.81
4.64
4.40
4.26
4.36
4.67
5.07
5.38
5.47
5.28
4.82
4.13
3.25
2.24
1.15
0.08
-0.90
-1.71
-2.39
-2.98
-3.56
-4.21
-4.91
-5.62
-6.25
-6.74
-7.05
-7.28
-7.59
-8.16
-9.09
-10.31
-11.50
-12.22
-12.07
-10.83
-8.59
-5.68
-2.57
0.37
2.90
4.95
6.51
7.60
8.21
8.34
8.03
7.38
6.55
5.71
5.01
4.55
4.39
4.50
4.84
5.29
5.71
5.98
6.04
5.92
5.69
5.40
5.05
4.60
4.02
3.35
2.67
2.09
1.62
1.22
0.74
0.05
-0.88
-1.95
-3.01
-3.89
-4.50
-4.89
-5.18
-5.49
-5.93
-6.56
-7.40
-8.40
-9.46
-10.44
-11.10
-11.21
-10.54
-9.00
-6.69
-3.91
-1.07
1.41
3.25
4.40
4.99
5.22
5.23
5.04
4.59
3.85
2.85
1.75
0.74
-0.02
-0.45
-0.59
-0.56
-0.49
-0.48
-0.60
-0.81
-1.06
-1.32
-1.62
-2.04
-2.71
-3.69
-4.93
-6.28
-7.59
-8.73
-9.67
-10.45
-11.11
-11.60
-11.81
-11.60
-10.86
-9.58
-7.85
-5.83
-3.70
-1.69
0.02
1.26
1.98
2.21
2.10
1.90
1.88
2.29
3.26
4.82
6.83
8.99
10.96
12.39
13.08
13.00
12.31
11.30
10.23
9.30
8.54
7.89
7.28
6.69
6.16
5.78
5.59
5.60
5.72
5.82
5.81
5.65
5.36
5.00
4.60
4.15
3.60
2.89
2.00
0.99
-0.03
-0.92
-1.59
-2.05
-2.41
-2.82
-3.38
-4.08
-4.83
-5.52
-6.12
-6.67
-7.30
-8.10
-8.98
-9.71
-9.95
-9.44
-8.13
-6.17
-3.91
-1.69
0.24
1.77
2.90
3.66
4.06
4.12
3.86
3.38
2.82
2.33
2.00
1.87
1.90
2.05
2.26
2.48
2.73
3.00
3.33
3.67
3.98
4.17
4.14
3.85
3.31
2.58
1.73
0.85
0.01
-0.73
-1.33
-1.83
-2.29
-2.84
-3.54
-4.40
-5.32
-6.16
-6.83
-7.31
-7.63
-7.88
-8.11
-8.40
-8.85
-9.58
-10.67
-12.04
-13.43
-14.41
-14.54
-13.59
-11.66
-9.13
-6.53
-4.31
-2.74
-1.82
-1.39
-1.30
-1.43
-1.75
-2.26
-2.95
-3.72
-4.46
-5.06
-5.44
-5.63
-5.65
-5.46
-4.92
-3.85
-2.07
0.46
3.58
6.95
10.16
12.89
14.98
16.52
17.73
18.91
20.25
21.79
23.40
24.89
26.06
26.78
26.99
26.66
25.81
24.46
22.64
20.46
18.09
15.67
13.32
11.01
8.66
6.14
3.36
0.32
-2.84
-5.90
-8.59
-10.65
-11.87
-12.13
-11.46
-10.05
-8.20
-6.27
-4.58
-3.29
-2.40
-1.83
-1.43
-1.12
-0.88
-0.74
-0.73
-0.83
-1.00
-1.18
-1.32
-1.38
-1.33
-1.16
-0.88
-0.54
-0.23
-0.00
0.14
0.21
0.26
0.27
0.17
-0.13
-0.67
-1.36
-2.10
-2.74
-3.27
-3.77
-4.33
-5.05
-5.90
-6.78
-7.55
-8.11
-8.43
-8.50
-8.40
-8.21
-8.03
-7.95
-8.07
-8.46
-9.16
-10.19
-11.49
-12.93
-14.24
-15.08
-15.11
-14.11
-12.07
-9.26
-6.11
-3.11
-0.65
1.09
2.12
2.61
2.76
2.79
2.80
2.85
2.88
2.84
2.66
2.36
1.99
1.68
1.57
1.74
2.17
2.78
3.44
4.05
4.54
4.89
5.08
5.05
4.75
4.13
3.21
2.07
0.86
-0.27
-1.27
-2.11
-2.84
-3.53
-4.18
-4.75
-5.18
-5.40
-5.45
-5.45
-5.60
-6.08
-6.99
-8.27
-9.70
-10.94
-11.68
-11.68
-10.85
-9.25
-7.02
-4.35
-1.48
1.28
3.66
5.41
6.41
6.66
6.31
5.59
4.76
4.08
3.71
3.72
4.07
4.64
5.24
5.72
6.02
6.15
6.21
6.28
6.39
6.49
6.51
6.39
6.12
5.73
5.21
4.55
3.74
2.81
1.84
0.95
0.26
-0.24
-0.62
-1.02
-1.56
-2.30
-3.17
-4.06
-4.86
-5.50
-6.01
-6.46
-6.94
-7.53
-8.30
-9.26
-10.40
-11.59
-12.57
-13.05
-12.78
-11.65
-9.75
-7.32
-4.67
-2.03
0.42
2.57
4.34
5.64
6.42
6.74
6.74
6.59
6.45
6.34
6.21
5.99
5.69
5.43
5.35
5.55
6.00
6.57
7.11
7.48
7.67
7.67
7.52
7.22
6.75
6.10
5.33
4.53
3.80
3.18
2.63
2.06
1.40
0.61
-0.25
-1.15
-1.99
-2.73
-3.34
-3.81
-4.15
-4.44
-4.76
-5.22
-5.91
-6.89
-8.14
-9.57
-11.00
-12.17
-12.84
-12.78
-11.90
-10.25
-8.03
-5.49
-2.90
-0.44
1.75
3.59
5.07
6.19
6.96
7.40
7.49
7.19
6.51
5.57
4.62
3.96
3.84
4.31
5.19
6.16
6.93
7.33
7.39
7.27
7.11
6.98
6.83
6.61
6.22
5.68
5.02
4.28
3.49
2.68
1.84
1.00
0.18
-0.59
-1.29
-1.93
-2.53
-3.09
-3.63
-4.14
-4.60
-5.03
-5.46
-5.92
-6.48
-7.21
-8.15
-9.29
-10.55
-11.70
-12.46
-12.52
-11.63
-9.74
-7.00
-3.79
-0.59
2.16
4.20
5.48
6.17
6.45
6.51
6.42
6.24
5.96
5.64
5.36
5.17
5.07
5.03
5.00
4.98
5.03
5.24
5.64
6.13
6.54
6.71
6.55
6.08
5.40
4.65
3.91
3.21
2.57
2.02
1.56
1.22
0.91
0.50
-0.15
-1.09
-2.25
-3.45
-4.47
-5.19
-5.63
-5.92
-6.26
-6.82
-7.69
-8.91
-10.44
-12.13
-13.77
-15.06
-15.67
-15.33
-13.93
-11.57
-8.54
-5.21
-1.97
0.90
3.21
4.92
6.06
6.72
7.03
7.11
7.01
6.77
6.39
5.92
5.45
5.12
5.04
5.27
5.77
6.46
7.19
7.84
8.34
8.63
8.67
8.44
7.93
7.21
6.38
5.54
4.79
4.14
3.56
3.01
2.44
1.84
1.24
0.64
0.05
-0.51
-1.06
-1.65
-2.34
-3.14
-4.07
-5.07
-6.03
-6.84
-7.43
-7.81
-8.06
-8.31
-8.70
-9.33
-10.28
-11.47
-12.74
-13.77
-14.20
-13.72
-12.19
-9.73
-6.67
-3.46
-0.45
2.08
4.07
5.50
6.41
6.85
6.92
6.75
6.51
6.31
6.18
6.05
5.81
5.42
4.98
4.68
4.73
5.21
6.05
7.01
7.79
8.19
8.13
7.64
6.90
6.07
5.28
4.58
3.95
3.32
2.67
2.03
1.46
1.06
0.85
0.77
0.68
0.45
-0.03
-0.71
-1.50
-2.27
-2.97
-3.58
-4.16
-4.77
-5.43
-6.13
-6.86
-7.66
-8.56
-9.62
-10.78
-11.83
-12.45
-12.28
-11.10
-8.93
-6.08
-3.02
-0.20
2.08
3.73
4.83
5.53
5.93
6.06
5.90
5.48
4.89
4.29
3.85
3.67
3.82
4.26
4.90
5.64
6.35
6.93
7.33
7.52
7.50
7.28
6.86
6.25
5.46
4.55
3.62
2.76
2.05
1.49
1.01
0.54
-0.01
-0.68
-1.44
-2.24
-2.99
-3.65
-4.23
-4.79
-5.39
-6.07
-6.84
-7.72
-8.68
-9.68
-10.60
-11.29
-11.56
-11.21
-10.13
-8.34
-5.99
-3.36
-0.78
1.50
3.30
4.58
5.36
5.70
5.65
5.29
4.72
4.09
3.59
3.37
3.45
3.74
4.05
4.24
4.27
4.23
4.29
4.54
4.99
5.49
5.90
6.08
6.02
5.74
5.32
4.79
4.18
3.51
2.79
2.08
1.40
0.75
0.10
-0.58
-1.31
-2.07
-2.81
-3.48
-4.05
-4.52
-4.91
-5.27
-5.65
-6.13
-6.80
-7.72
-8.89
-10.19
-11.34
-11.99
-11.79
-10.59
-8.47
-5.74
-2.82
-0.09
2.24
4.10
5.52
6.53
7.13
7.27
7.00
6.44
5.81
5.33
5.11
5.13
5.27
5.42
5.53
5.63
5.81
6.07
6.35
6.53
6.52
6.26
5.84
5.40
5.04
4.84
4.73
4.59
4.29
3.76
2.97
2.02
1.00
0.04
-0.80
-1.52
-2.13
-2.66
-3.11
-3.48
-3.79
-4.09
-4.41
-4.74
-4.95
-4.79
-3.96
-2.21
0.48
3.88
7.52
10.84
13.37
14.86
15.30
14.87
13.79
12.24
10.33
8.17
5.89
3.73
1.91
0.57
-0.29
-0.87
-1.39
-1.99
-2.65
-3.17
-3.34
-3.03
-2.31
-1.41
-0.64
-0.23
-0.26
-0.68
-1.38
-2.26
-3.27
-4.37
-5.56
-6.81
-8.12
-9.53
-11.08
-12.73
-14.36
-15.72
-16.58
-16.83
-16.58
-16.11
-15.82
-15.98
-16.71
-17.83
-19.02
-19.84
-19.92
-19.04
-17.14
-14.40
-11.10
-7.60
-4.24
-1.26
1.23
3.20
4.66
5.63
6.13
6.26
6.15
5.97
5.89
5.98
6.18
6.37
6.43
6.32
6.12
5.97
5.95
6.08
6.27
6.39
6.37
6.21
5.98
5.74
5.52
5.31
5.09
4.90
4.79
4.82
5.02
5.38
5.85
6.45
7.21
8.26
9.71
11.68
14.20
17.28
20.88
24.91
29.27
33.85
38.62
43.67
49.23
55.62
63.07
71.44
80.11
88.06
94.03
97.04
96.63
92.98
86.81
79.01
70.36
61.35
52.21
43.05
33.95
25.02
16.33
7.86
-0.49
-8.82
-17.11
-25.13
-32.49
-38.75
-43.58
-46.88
-48.78
-49.63
-49.86
-49.79
-49.60
-49.23
-48.59
-47.60
-46.40
-45.30
-44.67
-44.66
-45.14
-45.70
-45.85
-45.35
-44.30
-43.05
-41.96
-41.06
-40.00
-38.21
-35.23
-31.00
-25.90
-20.63
-15.87
-12.00
-9.08
-6.92
-5.36
-4.41
-4.26
-5.12
-6.97
-9.50
-12.13
-14.25
-15.43
-15.56
-14.88
-13.71
-12.37
-10.95
-9.41
-7.69
-5.83
-4.01
-2.46
-1.28
-0.35
0.62
2.01
4.04
6.63
9.45
12.09
14.24
15.92
17.40
19.10
21.31
24.03
26.92
29.46
31.15
31.76
31.39
30.41
29.21
28.06
27.04
26.04
24.97
23.83
22.79
22.02
21.57
21.31
20.87
19.87
17.96
14.99
10.99
6.16
0.85
-4.48
-9.31
-13.20
-15.86
-17.33
-17.97
-18.35
-19.10
-20.67
-23.12
-26.18
-29.23
-31.66
-33.05
-33.37
-32.96
-32.36
-32.04
-32.21
-32.74
-33.35
-33.81
-34.10
-34.37
-34.86
-35.72
-36.96
-38.42
-39.87
-41.05
-41.70
-41.54
-40.37
-38.09
-34.82
-30.80
-26.40
-21.93
-17.70
-13.93
-10.75
-8.21
-6.18
-4.45
-2.76
-0.93
1.04
3.02
4.79
6.15
6.98
7.12
6.51
5.12
3.13
0.88
-1.16
-2.63
-3.43
-3.81
-4.18
-4.90
-6.09
-7.58
-9.08
-10.39
-11.49
-12.60
-13.98
-15.78
-17.96
-20.31
-22.54
-24.47
-26.00
-27.13
-27.87
-28.14
-27.71
-26.31
-23.62
-19.42
-13.64
-6.40
2.01
11.14
20.47
29.42
37.49
44.27
49.46
52.88
54.46
54.27
52.51
49.58
45.99
42.25
38.75
35.62
32.79
30.07
27.25
24.20
20.88
17.28
13.44
9.37
5.13
0.83
-3.40
-7.45
-11.29
-14.93
-18.40
-21.68
-24.64
-27.08
-28.83
-29.77
-29.95
-29.53
-28.76
-27.88
-27.10
-26.53
-26.17
-25.86
-25.33
-24.19
-22.10
-18.86
-14.53
-9.47
-4.22
0.64
4.72
7.92
10.35
12.25
13.73
14.80
15.33
15.23
14.55
13.48
12.30
11.27
10.53
10.09
9.86
9.78
9.79
9.89
10.00
9.99
9.65
8.79
7.31
5.32
3.09
0.97
-0.73
-1.85
-2.46
-2.75
-2.92
-3.11
-3.34
-3.56
-3.74
-3.93
-4.21
-4.73
-5.59
-6.80
-8.31
-9.91
-11.35
-12.30
-12.47
-11.68
-9.90
-7.35
-4.34
-1.27
1.55
3.95
5.90
7.44
8.63
9.49
9.97
10.04
9.66
8.94
8.04
7.22
6.68
6.55
6.78
7.23
7.72
8.12
8.41
8.61
8.74
8.77
8.62
8.19
7.41
6.33
5.05
3.71
2.43
1.31
0.39
-0.32
-0.78
-0.99
-0.97
-0.77
-0.47
-0.15
0.16
0.42
0.61
0.69
0.57
0.15
-0.57
-1.51
-2.42
-2.96
-2.80
-1.77
0.13
2.66
5.50
8.33
10.92
13.11
14.81
15.96
16.48
16.34
15.54
14.15
12.29
10.11
7.76
5.42
3.28
1.51
0.20
-0.65
-1.15
-1.49
-1.84
-2.33
-3.00
-3.83
-4.82
-5.95
-7.22
-8.62
-10.04
-11.25
-11.94
-11.82
-10.73
-8.74
-6.10
-3.16
-0.26
2.39
4.70
6.66
8.22
9.30
9.83
9.83
9.48
9.10
9.15
10.04
12.12
15.58
20.42
26.48
33.37
40.50
47.20
52.86
57.19
60.29
62.59
64.58
66.47
67.95
68.13
65.80
59.89
49.98
36.75
21.95
7.94
-3.10
-10.02
-13.14
-14.15
-15.46
-19.39
-27.43
-39.87
-55.61
-72.34
-86.90
-95.92
-96.83
-88.92
-74.03
-56.33
-41.08
-32.63
-32.82
-40.39
-51.80
-62.99
-71.13
-75.57
-77.51
-78.94
-81.46
-85.47
-90.16
-93.94
-95.05
-92.00
-83.75
-69.70
-49.78
-24.76
3.50
32.07
57.36
76.03
86.00
87.14
81.29
71.58
61.28
52.76
46.99
43.60
41.55
39.81
37.83
35.55
33.19
31.02
29.11
27.46
25.96
24.65
23.68
23.33
23.84
25.22
27.20
29.20
30.46
30.16
27.65
22.58
15.02
5.53
-4.89
-15.05
-23.84
-30.30
-33.80
-34.08
-31.37
-26.50
-20.85
-16.03
-13.36
-13.24
-14.89
-16.60
-16.48
-13.30
-7.05
1.20
9.87
17.59
23.59
27.69
30.05
30.86
30.36
28.92
27.15
25.80
25.46
26.32
27.94
29.42
29.79
28.45
25.46
21.56
17.82
15.18
14.09
14.40
15.47
16.54
16.95
16.27
14.28
10.96
6.49
1.40
-3.45
-6.92
-7.93
-5.91
-1.06
5.59
12.53
18.38
22.29
24.21
24.67
24.39
23.83
22.94
21.26
18.20
13.46
7.21
0.10
-6.94
-13.03
-17.49
-19.88
-20.02
-17.80
-13.38
-7.25
-0.34
6.03
10.45
11.99
10.62
7.42
4.20
2.75
4.12
8.10
13.39
18.20
20.97
20.91
18.04
12.91
6.23
-1.31
-9.06
-16.32
-22.36
-26.61
-28.94
-29.72
-29.64
-29.30
-28.80
-27.67
-25.12
-20.48
-13.63
-5.11
4.09
12.92
20.62
26.76
31.23
34.06
35.30
35.13
33.77
31.53
28.69
25.36
21.56
17.26
12.59
7.84
3.32
-0.71
-4.19
-7.34
-10.35
-13.36
-16.35
-19.16
-21.71
-23.91
-25.67
-26.89
-27.40
-27.12
-26.21
-25.23
-25.08
-26.67
-30.45
-36.14
-42.63
-48.48
-52.40
-53.75
-52.78
-50.17
-46.57
-42.28
-37.16
-31.05
-24.11
-16.87
-10.23
-4.86
-0.87
2.09
4.62
6.98
9.03
10.37
10.48
9.36
7.43
5.46
4.15
3.79
4.21
4.98
5.55
5.66
5.38
5.05
5.07
5.54
6.29
6.96
7.08
6.48
5.36
4.20
3.54
3.53
3.94
4.27
4.04
3.20
2.09
1.30
1.29
1.93
2.62
2.63
1.46
-0.79
-3.57
-6.08
-7.70
-8.32
-8.14
-7.46
-6.47
-5.07
-3.23
-1.03
1.22
2.90
3.53
3.03
1.72
0.28
-0.72
-1.01
-0.70
-0.28
-0.10
-0.29
-0.63
-0.68
-0.21
0.72
1.74
2.28
1.96
0.79
-0.82
-2.22
-3.01
-3.13
-2.89
-2.85
-3.34
-4.33
-5.44
-6.17
-6.40
-6.40
-6.69
-7.75
-9.54
-11.63
-13.41
-14.52
-15.30
-16.57
-19.16
-23.44
-28.88
-34.27
-38.12
-39.23
-37.14
-32.11
-24.89
-16.47
-7.80
0.34
7.32
12.77
16.54
18.80
20.00
20.66
21.29
22.18
23.36
24.77
26.18
27.42
28.35
28.85
28.88
28.41
27.48
26.22
24.75
23.25
21.82
20.46
19.12
17.67
15.96
13.97
11.74
9.43
7.26
5.43
4.02
2.95
2.00
0.91
-0.48
-2.10
-3.74
-5.04
-5.71
-5.79
-5.50
-5.24
-5.43
-6.28
-7.83
-9.88
-12.08
-14.11
-15.62
-16.35
-16.08
-14.77
-12.56
-9.78
-6.84
-4.27
-2.42
-1.42
-1.22
-1.49
-1.99
-2.52
-3.03
-3.67
-4.46
-5.29
-5.83
-5.78
-5.14
-4.35
-4.08
-5.06
-7.43
-10.63
-13.55
-14.95
-14.17
-11.35
-7.29
-3.02
0.74
3.82
6.49
9.18
11.89
14.30
15.89
16.18
15.11
12.94
10.14
7.24
4.48
1.96
-0.32
-2.39
-4.24
-5.89
-7.41
-8.80
-10.15
-11.41
-12.47
-13.23
-13.64
-13.86
-14.11
-14.53
-15.16
-15.76
-15.93
-15.26
-13.49
-10.77
-7.57
-4.44
-2.00
-0.47
0.24
0.56
1.06
2.00
3.36
4.81
5.90
6.43
6.53
6.62
7.16
8.20
9.41
10.24
10.26
9.55
8.63
8.19
8.74
10.03
11.34
11.85
11.01
8.98
6.30
3.60
1.19
-1.23
-4.21
-8.11
-12.91
-18.12
-23.18
-27.69
-31.51
-34.71
-37.15
-38.46
-38.09
-35.72
-31.55
-26.39
-21.30
-17.24
-14.59
-13.08
-12.01
-10.58
-8.40
-5.51
-2.31
0.67
3.12
5.06
6.73
8.48
10.37
12.16
13.50
14.00
13.63
12.70
11.76
11.35
11.68
12.55
13.53
14.17
14.30
13.97
13.50
13.17
13.02
12.95
12.80
12.49
12.10
11.72
11.31
10.74
9.68
8.03
5.98
3.99
2.61
2.12
2.39
2.94
3.08
2.32
0.43
-2.52
-6.26
-10.44
-14.57
-17.91
-19.65
-19.00
-15.59
-9.72
-2.31
5.27
11.74
16.32
18.78
19.40
18.61
16.77
14.07
10.55
6.36
1.82
-2.68
-6.73
-10.08
-12.65
-14.49
-15.67
-16.10
-15.61
-13.94
-10.96
-6.82
-1.92
3.12
7.71
11.44
14.26
16.36
18.03
19.48
20.75
21.75
22.33
22.44
22.21
21.83
21.59
21.66
22.12
22.97
24.08
25.32
26.56
27.73
28.85
29.88
30.75
31.28
31.23
30.41
28.79
26.52
23.92
21.25
18.67
16.09
13.28
9.99
6.12
1.78
-2.72
-7.02
-10.76
-13.74
-15.94
-17.43
-18.44
-19.16
-19.76
-20.41
-21.16
-21.96
-22.63
-22.85
-22.38
-21.19
-19.66
-18.60
-19.01
-21.62
-26.57
-33.14
-40.01
-45.74
-49.26
-50.18
-48.66
-45.14
-39.92
-33.14
-24.87
-15.47
-5.65
3.55
11.21
16.86
20.62
23.06
24.81
26.26
27.45
28.06
27.77
26.42
24.10
21.19
18.11
15.27
12.94
11.30
10.42
10.24
10.63
11.39
12.28
13.14
13.84
14.35
14.70
14.94
15.15
15.39
15.67
15.97
16.23
16.42
16.47
16.39
16.15
15.71
15.03
14.11
13.01
11.85
10.77
9.85
9.03
8.13
6.97
5.45
3.70
1.96
0.54
-0.38
-0.84
-1.10
-1.51
-2.36
-3.76
-5.59
-7.53
-9.18
-10.20
-10.40
-9.75
-8.35
-6.35
-3.92
-1.21
1.57
4.17
6.34
7.87
8.69
8.90
8.69
8.26
7.73
7.12
6.44
5.71
5.02
4.53
4.35
4.48
4.83
5.24
5.60
5.88
6.12
6.37
6.61
6.73
6.59
6.10
5.26
4.20
3.10
2.12
1.32
0.66
0.06
-0.57
-1.25
-1.94
-2.59
-3.13
-3.54
-3.84
-4.13
-4.47
-4.90
-5.45
-6.08
-6.78
-7.53
-8.34
-9.16
-9.93
-10.51
-10.79
-10.71
-10.36
-9.92
-9.61
-9.61
-9.89
-10.28
-10.50
-10.28
-9.43
-7.93
-5.88
-3.50
-1.02
1.32
3.37
5.04
6.31
7.19
7.75
8.07
8.27
8.39
8.47
8.46
8.29
7.94
7.47
6.99
6.63
6.42
6.32
6.19
5.95
5.58
5.21
4.99
5.00
5.18
5.36
5.35
5.04
4.46
3.76
3.11
2.65
2.38
2.22
2.08
1.87
1.59
1.26
0.91
0.53
0.05
-0.54
-1.24
-1.98
-2.64
-3.13
-3.43
-3.59
-3.69
-3.86
-4.14
-4.56
-5.05
-5.53
-5.93
-6.25
-6.54
-6.89
-7.35
-7.95
-8.64
-9.41
-10.24
-11.12
-12.03
-12.84
-13.34
-13.32
-12.62
-11.25
-9.42
-7.42
-5.53
-3.92
-2.62
-1.55
-0.63
0.17
0.80
1.18
1.28
1.15
0.90
0.68
0.62
0.71
0.91
1.11
1.20
1.20
1.21
1.34
1.66
2.13
2.60
2.97
3.18
3.36
3.64
4.10
4.70
5.28
5.62
5.63
5.32
4.84
4.33
3.91
3.58
3.26
2.85
2.26
1.49
0.60
-0.28
-1.04
-1.61
-2.03
-2.40
-2.81
-3.32
-3.89
-4.44
-4.90
-5.30
-5.72
-6.27
-7.02
-7.94
-8.93
-9.89
-10.75
-11.51
-12.22
-12.92
-13.58
-14.07
-14.24
-13.93
-13.12
-11.85
-10.29
-8.57
-6.82
-5.10
-3.50
-2.12
-1.09
-0.53
-0.46
-0.76
-1.23
-1.63
-1.79
-1.69
-1.40
-1.06
-0.80
-0.64
-0.54
-0.40
-0.16
0.23
0.70
1.20
1.67
2.13
2.62
3.16
3.72
4.18
4.46
4.46
4.21
3.83
3.44
3.11
2.81
2.46
1.98
1.36
0.68
0.04
-0.50
-0.98
-1.49
-2.14
-2.94
-3.86
-4.80
-5.68
-6.47
-7.20
-7.91
-8.63
-9.34
-10.05
-10.80
-11.64
-12.61
-13.65
-14.60
-15.21
-15.21
-14.41
-12.75
-10.29
-7.21
-3.81
-0.41
2.69
5.26
7.18
8.51
9.38
10.00
10.52
11.07
11.71
12.45
13.27
14.10
14.84
15.39
15.73
15.96
16.27
16.89
17.93
19.36
20.94
22.35
23.24
23.35
22.58
20.93
18.53
15.61
12.42
9.21
6.16
3.34
0.77
-1.55
-3.51
-4.89
-5.41
-4.84
-3.09
-0.29
3.30
7.32
11.44
15.39
18.96
22.06
24.70
27.00
29.17
31.41
33.77
36.08
37.97
38.98
38.81
37.48
35.37
33.20
31.86
32.16
34.66
39.39
45.83
52.92
59.32
63.67
64.97
62.83
57.53
49.88
40.92
31.60
22.63
14.35
6.81
-0.14
-6.70
-13.10
-19.52
-26.06
-32.68
-39.26
-45.55
-51.24
-56.01
-59.61
-61.86
-62.63
-61.89
-59.75
-56.59
-53.07
-50.08
-48.51
-48.79
-50.68
-53.13
-54.67
-53.89
-50.07
-43.47
-35.16
-26.58
-18.91
-12.67
-7.72
-3.56
0.32
4.16
7.95
11.46
14.34
16.10
16.04
13.30
7.20
-2.39
-14.80
-28.57
-41.84
-52.94
-60.87
-65.42
-67.03
-66.52
-64.70
-62.21
-59.42
-56.47
-53.33
-49.87
-45.97
-41.69
-37.22
-32.80
-28.64
-24.79
-21.21
-17.90
-15.02
-12.86
-11.69
-11.53
-12.14
-13.05
-13.83
-14.26
-14.35
-14.24
-13.98
-13.45
-12.38
-10.57
-7.99
-4.92
-1.76
1.08
3.36
5.10
6.51
7.87
9.40
11.20
13.21
15.23
16.93
17.96
17.99
16.79
14.29
10.67
6.30
1.75
-2.32
-5.32
-6.90
-7.06
-6.16
-4.77
-3.48
-2.69
-2.48
-2.67
-2.99
-3.19
-3.24
-3.22
-3.25
-3.37
-3.48
-3.40
-2.90
-1.83
-0.21
1.88
4.27
6.77
9.20
11.40
13.21
14.52
15.24
15.37
15.00
14.31
13.54
12.88
12.53
12.60
13.12
14.07
15.39
16.96
18.65
20.30
21.84
23.24
24.54
25.78
26.98
28.05
28.83
29.18
29.05
28.56
27.99
27.71
27.95
28.72
29.64
30.10
29.36
26.87
22.47
16.53
9.88
3.61
-1.29
-4.19
-4.97
-3.97
-1.82
0.81
3.34
5.33
6.50
6.63
5.67
3.78
1.31
-1.20
-3.23
-4.41
-4.67
-4.23
-3.50
-2.86
-2.52
-2.42
-2.22
-1.39
0.58
4.00
8.82
14.62
20.67
26.17
30.44
33.15
34.31
34.21
33.25
31.73
29.78
27.35
24.32
20.60
16.25
11.48
6.56
1.85
-2.38
-5.85
-8.40
-9.89
-10.29
-9.67
-8.23
-6.31
-4.29
-2.52
-1.21
-0.34
0.30
1.03
2.11
3.60
5.31
6.94
8.13
8.70
8.60
7.92
6.80
5.31
3.44
1.10
-1.91
-5.82
-10.74
-16.55
-22.70
-28.31
-32.38
-34.21
-33.68
-31.40
-28.35
-25.57
-23.60
-22.42
-21.54
-20.34
-18.37
-15.39
-11.35
-6.16
0.23
7.72
15.81
23.50
29.46
32.40
31.57
27.04
19.79
11.38
3.51
-2.46
-5.88
-6.91
-6.35
-5.28
-4.63
-4.84
-5.78
-6.85
-7.31
-6.65
-4.69
-1.62
2.18
6.35
10.63
14.88
18.99
22.87
26.37
29.40
31.91
33.89
35.33
36.18
36.29
35.42
33.32
29.80
24.88
18.85
12.28
5.86
0.30
-3.92
-6.69
-8.25
-9.04
-9.56
-10.15
-10.96
-11.95
-12.95
-13.79
-14.35
-14.51
-14.28
-13.70
-12.95
-12.24
-11.72
-11.42
-11.14
-10.54
-9.24
-7.01
-3.87
-0.11
3.85
7.55
10.69
13.15
14.97
16.33
17.35
18.11
18.53
18.40
17.49
15.70
13.14
10.16
7.30
5.01
3.60
3.13
3.51
4.60
6.24
8.26
10.33
12.02
12.82
12.33
10.46
7.45
3.80
0.09
-3.24
-5.99
-8.24
-10.23
-12.22
-14.41
-16.81
-19.29
-21.68
-23.79
-25.55
-26.95
-28.08
-29.01
-29.77
-30.39
-30.93
-31.44
-31.98
-32.52
-32.86
-32.73
-31.88
-30.28
-28.24
-26.32
-25.08
-24.85
-25.50
-26.44
-26.87
-26.13
-24.01
-20.80
-17.10
-13.55
-10.54
-8.12
-6.10
-4.22
-2.37
-0.63
0.83
1.82
2.30
2.34
2.15
1.99
2.04
2.42
3.12
4.08
5.12
6.08
6.78
7.13
7.17
7.10
7.17
7.64
8.58
9.83
11.02
11.67
11.44
10.24
8.30
6.08
4.06
2.60
1.84
1.77
2.25
3.18
4.50
6.16
8.11
10.22
12.33
14.22
15.74
16.72
17.06
16.74
15.82
14.40
12.66
10.77
8.84
6.94
5.09
3.30
1.62
0.12
-1.16
-2.19
-2.99
-3.61
-4.15
-4.71
-5.36
-6.16
-6.98
-7.62
-7.75
-7.09
-5.56
-3.34
-0.79
1.69
3.89
5.79
7.57
9.33
11.02
12.36
13.08
13.02
12.32
11.28
10.27
9.45
8.74
7.90
6.73
5.24
3.73
2.58
2.11
2.40
3.20
4.10
4.66
4.57
3.75
2.29
0.40
-1.62
-3.53
-5.14
-6.30
-6.97
-7.17
-7.05
-6.84
-6.83
-7.31
-8.47
-10.32
-12.69
-15.19
-17.43
-19.09
-20.10
-20.63
-20.99
-21.46
-22.17
-23.00
-23.67
-23.85
-23.30
-21.97
-19.93
-17.34
-14.39
-11.24
-8.14
-5.35
-3.23
-2.02
-1.76
-2.23
-3.01
-3.63
-3.76
-3.33
-2.48
-1.44
-0.34
0.78
1.99
3.36
4.81
6.17
7.19
7.73
7.76
7.46
7.04
6.71
6.59
6.67
6.82
6.92
6.90
6.74
6.53
6.41
6.50
6.86
7.47
8.24
9.04
9.71
10.15
10.29
10.13
9.68
9.01
8.16
7.19
6.17
5.22
4.43
3.90
3.64
3.57
3.50
3.26
2.74
2.02
1.34
1.06
1.48
2.70
4.60
6.80
8.76
9.96
9.99
8.79
6.63
4.01
1.50
-0.56
-2.16
-3.57
-5.09
-6.81
-8.48
-9.67
-10.06
-9.63
-8.79
-8.09
-7.94
-8.34
-8.91
-9.12
-8.60
-7.37
-5.76
-4.23
-3.11
-2.49
-2.23
-2.13
-2.05
-1.98
-1.98
-2.04
-2.11
-2.07
-1.86
-1.49
-1.02
-0.52
0.01
0.62
1.32
2.09
2.79
3.25
3.37
3.15
2.72
2.23
1.76
1.31
0.80
0.18
-0.57
-1.33
-2.01
-2.56
-3.00
-3.45
-4.04
-4.91
-6.09
-7.59
-9.32
-11.16
-12.89
-14.25
-14.98
-14.84
-13.75
-11.77
-9.11
-6.05
-2.90
0.05
2.59
4.56
5.90
6.70
7.09
7.26
7.34
7.32
7.18
6.86
6.41
5.97
5.71
5.74
6.06
6.57
7.14
7.70
8.25
8.81
9.35
9.75
9.86
9.55
8.83
7.83
6.78
5.85
5.17
4.74
4.52
4.45
4.44
4.42
4.26
3.82
3.01
1.82
0.37
-1.19
-2.67
-3.99
-5.15
-6.21
-7.25
-8.33
-9.45
-10.58
-11.64
-12.48
-12.87
-12.57
-11.40
-9.33
-6.56
-3.48
-0.54
1.88
3.60
4.71
5.46
6.15
7.00
8.05
9.21
10.28
11.05
11.40
11.37
11.14
10.95
11.02
11.46
12.26
13.30
14.47
15.65
16.80
17.91
18.95
19.86
20.54
20.91
20.93
20.68
20.26
19.82
19.45
19.16
18.84
18.30
17.38
15.95
14.03
11.67
8.96
5.91
2.46
-1.42
-5.66
-10.03
-14.19
-17.81
-20.65
-22.68
-24.03
-24.92
-25.49
-25.80
-25.82
-25.50
-24.84
-23.85
-22.57
-20.96
-18.98
-16.62
-14.01
-11.43
-9.24
-7.78
-7.17
-7.28
-7.71
-8.04
-7.99
-7.52
-6.80
-6.11
-5.66
-5.53
-5.65
-5.80
-5.80
-5.52
-4.95
-4.13
-3.18
-2.17
-1.19
-0.26
0.63
1.48
2.34
3.23
4.19
5.23
6.38
7.59
8.84
10.03
11.02
11.64
11.78
11.42
10.71
9.91
9.33
9.11
9.20
9.33
9.16
8.50
7.37
6.01
4.73
3.73
2.98
2.27
1.37
0.16
-1.32
-2.90
-4.42
-5.79
-6.99
-8.09
-9.09
-10.02
-10.89
-11.80
-12.89
-14.33
-16.16
-18.22
-20.13
-21.39
-21.58
-20.50
-18.26
-15.23
-11.88
-8.61
-5.69
-3.23
-1.25
0.26
1.31
1.94
2.29
2.54
2.86
3.32
3.84
4.26
4.42
4.27
3.92
3.58
3.52
3.92
4.82
6.08
7.44
8.59
9.27
9.40
9.00
8.23
7.26
6.22
5.19
4.21
3.31
2.52
1.82
1.14
0.41
-0.44
-1.42
-2.47
-3.49
-4.41
-5.22
-5.99
-6.82
-7.86
-9.19
-10.81
-12.62
-14.41
-15.83
-16.51
-16.15
-14.68
-12.24
-9.19
-5.98
-2.98
-0.42
1.62
3.22
4.46
5.44
6.22
6.86
7.42
7.97
8.46
8.78
8.76
8.29
7.42
6.36
5.45
5.00
5.14
5.82
6.79
7.76
8.51
8.93
9.01
8.81
8.35
7.68
6.83
5.88
4.93
4.11
3.47
2.95
2.45
1.84
1.04
0.04
-1.14
-2.44
-3.83
-5.26
-6.67
-8.02
-9.29
-10.54
-11.87
-13.35
-14.87
-16.14
-16.71
-16.17
-14.36
-11.40
-7.74
-3.92
-0.41
2.50
4.74
6.37
7.52
8.36
9.02
9.60
10.15
10.61
10.85
10.75
10.29
9.56
8.78
8.23
8.06
8.29
8.77
9.33
9.83
10.27
10.70
11.17
11.60
11.83
11.68
11.06
10.07
8.93
7.87
7.04
6.42
5.85
5.15
4.23
3.07
1.73
0.32
-1.13
-2.54
-3.90
-5.15
-6.28
-7.29
-8.27
-9.33
-10.60
-12.15
-13.95
-15.81
-17.45
-18.49
-18.58
-17.51
-15.23
-11.97
-8.09
-4.08
-0.33
2.89
5.46
7.40
8.76
9.65
10.20
10.56
10.86
11.18
11.48
11.68
11.67
11.44
11.12
10.93
11.10
11.73
12.79
14.12
15.54
16.92
18.21
19.40
20.50
21.55
22.62
23.88
25.46
27.40
29.61
31.87
33.91
35.47
36.33
36.27
35.11
32.91
30.04
27.34
25.95
27.01
31.29
38.96
49.59
62.30
75.99
89.40
101.12
109.68
113.70
112.27
105.26
93.39
78.02
60.76
43.10
26.19
10.90
-2.16
-12.51
-19.89
-24.36
-26.37
-26.66
-26.10
-25.40
-25.03
-25.18
-25.85
-26.97
-28.45
-30.22
-32.12
-33.94
-35.48
-36.53
-37.10
-37.34
-37.61
-38.28
-39.58
-41.57
-44.07
-46.80
-49.48
-51.89
-53.85
-55.15
-55.56
-54.86
-52.89
-49.73
-45.68
-41.15
-36.62
-32.45
-28.84
-25.86
-23.40
-21.36
-19.59
-17.95
-16.32
-14.66
-12.96
-11.27
-9.70
-8.38
-7.44
-7.01
-7.16
-7.85
-8.96
-10.31
-11.72
-13.13
-14.55
-16.07
-17.75
-19.50
-21.12
-22.30
-22.80
-22.53
-21.62
-20.33
-18.97
-17.72
-16.58
-15.44
-14.20
-12.92
-11.82
-11.18
-11.18
-11.73
-12.52
-13.12
-13.21
-12.64
-11.52
-10.00
-8.23
-6.31
-4.29
-2.27
-0.44
1.01
1.94
2.37
2.41
2.25
2.01
1.79
1.59
1.41
1.23
1.02
0.73
0.32
-0.17
-0.71
-1.23
-1.74
-2.33
-3.12
-4.23
-5.66
-7.33
-9.11
-10.93
-12.82
-14.94
-17.44
-20.45
-23.92
-27.63
-31.25
-34.32
-36.40
-37.16
-36.54
-34.79
-32.45
-30.20
-28.58
-27.84
-27.88
-28.36
-28.93
-29.52
-30.35
-31.91
-34.64
-38.73
-43.93
-49.64
-55.04
-59.45
-62.48
-64.17
-64.91
-65.20
-65.39
-65.42
-64.81
-62.82
-58.72
-52.21
-43.53
-33.54
-23.43
-14.39
-7.20
-1.92
2.18
6.62
13.31
23.95
39.28
58.52
79.27
98.10
111.63
117.79
116.63
110.26
102.00
95.03
91.19
90.50
91.50
92.18
90.93
87.06
80.79
72.77
63.75
54.20
44.48
34.93
26.01
18.17
11.47
5.34
-1.41
-10.19
-22.06
-37.13
-54.53
-72.61
-89.70
-104.65
-117.16
-127.59
-136.40
-143.63
-148.64
-150.36
-147.95
-141.42
-131.67
-120.26
-108.54
-96.87
-84.47
-69.89
-51.95
-30.55
-6.98
16.34
36.46
50.59
56.65
53.96
43.78
29.57
16.46
9.89
13.70
28.50
51.33
76.80
99.21
114.60
121.77
121.88
117.22
109.99
101.69
93.23
85.21
78.12
72.52
68.76
66.84
66.32
66.51
66.65
66.25
65.24
64.09
63.75
65.50
70.40
78.85
90.30
103.25
115.56
125.05
130.00
129.55
123.67
112.61
96.51
75.48
50.13
21.94
-6.62
-32.62
-53.53
-67.69
-75.25
-77.95
-78.19
-77.79
-77.45
-76.86
-75.26
-72.10
-66.87
-60.08
-53.23
-48.09
-45.66
-45.63
-46.56
-46.35
-43.01
-34.64
-21.05
-4.03
13.43
28.60
39.78
46.66
50.21
47.66
39.54
29.81
22.72
19.51
18.47
16.93
12.89
5.68
-4.09
-14.43
-23.55
-30.44
-35.57
-39.10
-40.87
-40.84
-39.29
-36.91
-34.18
-31.95
-31.29
-32.95
-36.68
-40.96
-44.07
-44.77
-42.80
-38.64
-33.56
-29.06
-26.19
-24.83
-24.07
-22.83
-20.41
-16.73
-12.09
-7.10
-2.46
1.23
3.83
5.48
6.51
7.16
7.57
7.90
8.40
9.27
10.59
12.28
13.96
15.12
15.19
13.82
11.27
8.43
6.46
6.29
8.39
12.54
18.30
24.82
31.28
37.22
42.63
47.71
52.60
57.22
61.18
64.06
65.02
63.04
57.47
48.29
36.15
22.17
7.71
-7.53
-21.68
-32.36
-38.34
-40.17
-39.32
-37.33
-35.43
-34.38
-34.46
-35.21
-36.11
-36.78
-36.99
-36.71
-36.12
-35.79
-35.89
-36.42
-37.05
-37.55
-37.82
-37.66
-36.84
-35.17
-32.70
-29.67
-26.47
-23.35
-20.51
-18.06
-15.85
-13.65
-11.03
-7.55
-2.74
3.69
11.84
21.47
31.86
42.08
51.20
58.54
63.83
67.22
69.17
70.25
70.95
71.50
71.88
71.80
70.82
68.50
64.59
59.26
53.06
46.79
41.20
36.65
32.96
29.49
25.48
20.46
14.62
8.86
4.45
2.55
3.65
7.24
11.95
15.88
17.24
14.85
8.45
-1.46
-13.87
-27.60
-41.51
-54.55
-65.74
-74.23
-79.42
-81.24
-80.24
-77.50
-74.27
-71.34
-68.69
-65.38
-59.98
-51.29
-39.00
-23.91
-7.72
7.50
20.01
28.70
33.25
33.99
31.62
27.06
21.28
15.19
9.56
4.94
1.73
0.12
0.23
1.94
4.94
8.70
12.54
15.87
18.32
19.79
20.51
20.90
21.47
22.71
24.91
28.00
31.51
34.57
36.19
35.63
32.68
27.79
21.93
16.28
11.71
8.58
6.57
4.92
2.77
-0.47
-4.96
-10.50
-16.82
-23.88
-31.95
-41.55
-53.10
-66.65
-81.78
-97.57
-112.75
-125.77
-135.03
-138.95
-136.40
-127.03
-111.60
-92.00
-70.83
-50.67
-33.43
-19.76
-9.16
-0.35
8.00
16.70
25.83
34.83
42.99
49.80
55.25
59.62
63.28
66.37
68.72
70.03
70.11
69.05
67.23
65.16
63.28
61.74
60.43
59.05
57.30
55.07
52.47
49.87
47.71
46.33
45.79
45.81
45.86
45.38
44.03
41.83
39.25
36.96
35.55
35.14
35.24
34.83
32.74
28.16
21.05
12.28
3.41
-3.96
-8.77
-10.93
-11.30
-11.33
-12.51
-15.87
-21.67
-29.47
-38.17
-46.37
-52.73
-56.66
-58.61
-60.11
-63.20
-69.26
-77.93
-86.78
-92.21
-91.18
-83.00
-70.21
-58.12
-53.27
-61.28
-84.80
-122.22
-167.35
-210.49
-240.63
-248.51
-229.51
-185.44
-124.09
-56.79
5.19
53.83
85.93
102.61
107.44
104.46
96.96
87.46
77.90
70.02
65.21
63.96
65.52
67.88
68.48
65.24
57.33
45.46
31.53
17.93
6.68
-1.02
-4.98
-5.85
-4.69
-2.68
-0.88
-0.08
-0.85
-3.54
-8.28
-14.99
-23.25
-32.27
-41.03
-48.53
-54.29
-58.61
-62.66
-67.96
-75.60
-85.29
-95.00
-101.29
-100.46
-89.95
-69.41
-40.94
-8.36
24.05
52.78
75.71
92.10
102.19
106.69
106.50
102.61
96.13
88.20
79.85
71.88
64.77
58.79
54.02
50.45
47.94
46.27
45.16
44.26
43.36
42.31
41.10
39.79
38.49
37.38
36.67
36.58
37.28
38.78
40.85
43.10
45.03
46.12
45.85
43.62
38.86
31.17
20.61
7.92
-5.47
-17.82
-27.62
-34.09
-37.35
-38.22
-37.73
-36.69
-35.41
-33.86
-31.94
-29.65
-27.23
-24.94
-22.92
-21.07
-19.15
-16.92
-14.37
-11.74
-9.44
-7.88
-7.23
-7.40
-8.09
-8.94
-9.68
-10.20
-10.49
-10.51
-10.13
-9.18
-7.47
-4.96
-1.78
1.76
5.27
8.39
10.85
12.53
13.37
13.40
12.69
11.43
9.91
8.45
7.17
5.92
4.20
1.39
-2.85
-8.31
-14.15
-19.23
-22.58
-23.82
-23.26
-21.66
-19.85
-18.35
-17.34
-16.76
-16.56
-16.81
-17.59
-18.72
-19.70
-19.75
-18.08
-14.29
-8.56
-1.64
5.51
12.17
18.09
23.56
29.14
35.22
41.86
48.71
55.25
61.05
65.95
70.05
73.67
77.16
80.87
85.07
89.87
95.12
100.32
104.75
107.66
108.57
107.40
104.35
99.51
92.49
82.16
66.87
44.89
15.15
-22.15
-65.01
-109.55
-150.27
-181.04
-196.60
-194.11
-174.21
-140.98
-100.71
-60.06
-24.29
3.61
22.82
33.96
38.33
37.47
33.19
27.45
22.17
18.67
17.20
16.85
16.01
13.04
7.08
-1.70
-12.19
-22.78
-31.93
-38.68
-42.87
-45.02
-46.09
-47.03
-48.40
-50.13
-51.54
-51.59
-49.30
-44.22
-36.76
-28.13
-20.01
-13.84
-10.29
-9.03
-8.97
-8.93
-8.17
-6.74
-5.17
-4.05
-3.55
-3.36
-2.86
-1.55
0.68
3.60
6.73
9.70
12.31
14.59
16.63
18.50
20.13
21.38
22.11
22.26
21.92
21.37
20.91
20.83
21.25
22.09
23.07
23.82
23.93
23.07
21.05
17.83
13.58
8.65
3.49
-1.49
-5.99
-9.87
-13.08
-15.60
-17.38
-18.46
-18.98
-19.19
-19.30
-19.33
-19.05
-18.10
-16.21
-13.46
-10.28
-7.22
-4.71
-2.78
-1.13
0.67
2.91
5.57
8.44
11.25
13.90
16.45
19.02
21.57
23.75
25.03
24.84
22.94
19.62
15.75
12.58
11.42
13.16
18.04
25.52
34.37
42.90
49.16
51.27
47.76
38.05
22.75
3.79
-15.94
-33.33
-45.91
-52.55
-53.56
-50.31
-44.51
-37.56
-30.25
-22.78
-15.10
-7.17
0.88
8.77
16.21
22.97
28.77
33.30
36.12
36.82
35.18
31.39
26.10
20.21
14.59
9.77
5.80
2.34
-1.08
-4.81
-8.89
-13.12
-17.11
-20.60
-23.47
-25.79
-27.56
-28.68
-28.94
-28.21
-26.67
-24.85
-23.40
-22.74
-22.86
-23.30
-23.47
-22.97
-21.83
-20.34
-18.82
-17.33
-15.70
-13.69
-11.24
-8.48
-5.63
-2.76
0.25
3.60
7.35
11.24
14.79
17.40
18.69
18.60
17.47
15.89
14.60
14.22
15.20
17.66
21.46
26.24
31.51
36.86
41.98
46.73
51.00
54.64
57.37
58.72
58.23
55.62
50.95
44.75
37.89
31.31
25.72
21.42
18.24
15.68
13.13
10.06
6.10
1.02
-5.22
-12.50
-20.43
-28.44
-35.91
-42.38
-47.74
-52.29
-56.55
-60.81
-64.89
-68.08
-69.46
-68.55
-65.52
-61.24
-56.86
-53.22
-50.50
-48.27
-45.94
-43.28
-40.73
-38.96
-38.22
-37.93
-36.80
-33.47
-27.44
-19.56
-11.99
-7.55
-8.19
-14.09
-23.71
-34.50
-43.97
-50.37
-52.92
-51.54
-46.88
-39.42
-29.56
-18.01
-6.12
4.29
11.67
15.36
15.93
14.43
12.61
12.36
15.01
20.94
29.66
40.29
51.85
66.94
85.56
105.36
122.94
136.06
144.36
148.76
150.71
151.60
152.19
152.05
150.56
147.13
141.22
132.23
119.70
104.48
88.04
72.07
57.43
44.08
31.11
17.33
2.16
-13.61
-27.79
-37.92
-42.54
-42.40
-40.06
-38.77
-41.19
-48.44
-60.05
-74.35
-89.38
-103.48
-115.66
-125.47
-132.89
-138.32
-142.64
-147.13
-153.29
-162.56
-175.81
-192.94
-212.41
-231.37
-246.23
-253.89
-252.96
-244.29
-230.75
-215.97
-202.98
-193.12
-185.96
-179.89
-173.07
-164.17
-152.58
-138.25
-121.25
-101.51
-78.70
-52.53
-23.06
8.99
42.02
73.93
102.58
126.38
144.68
157.61
165.57
168.73
167.00
160.34
149.33
135.44
120.82
107.76
97.82
91.37
87.62
85.22
82.87
79.99
76.67
73.53
71.61
71.70
73.91
77.64
81.84
85.14
86.49
85.13
80.81
74.62
67.98
62.04
57.28
53.79
51.08
48.99
47.35
46.06
46.20
48.56
53.01
58.48
63.71
67.32
68.90
68.29
65.37
61.63
58.44
56.26
54.59
52.74
49.59
45.06
39.15
23.13
-6.42
-46.28
-88.36
-125.03
-148.64
-161.19
-165.34
-163.26
-156.45
-145.82
-131.88
-115.78
-99.17
-82.33
-65.52
-48.31
-31.11
-14.97
0.32
15.49
31.21
47.87
67.12
89.35
113.75
137.54
157.34
171.44
179.78
183.30
183.36
183.57
186.63
193.77
203.98
214.93
224.40
230.30
230.37
210.00
162.56
93.12
17.56
-47.26
-92.06
-116.42
-125.58
-126.47
-124.61
-120.78
-114.17
-104.60
-93.90
-85.15
-80.87
-81.74
-86.55
-92.73
-96.03
-93.67
-85.75
-75.02
-65.02
-58.16
-54.72
-53.32
-51.97
-48.12
-40.60
-30.15
-18.93
-9.12
-2.25
1.51
2.94
3.25
3.92
5.69
8.32
10.80
12.01
11.31
8.83
5.13
0.91
-3.16
-6.83
-10.08
-13.01
-15.59
-17.57
-18.54
-18.20
-16.50
-13.69
-10.39
-7.15
-4.33
-1.90
0.46
3.12
6.12
8.96
11.03
11.18
8.37
2.17
-6.94
-17.55
-27.62
-35.04
-38.12
-36.03
-28.95
-17.84
-4.15
10.48
24.46
36.34
44.91
49.21
48.74
43.53
34.42
23.01
11.37
1.57
-4.87
-7.45
-6.77
-4.23
-1.56
-0.07
-0.38
-2.31
-5.30
-8.78
-12.46
-16.39
-20.69
-25.39
-30.30
-35.02
-39.13
-42.36
-44.64
-46.00
-46.51
-46.19
-45.06
-43.24
-41.00
-38.74
-36.88
-35.75
-35.39
-35.63
-36.15
-36.64
-36.97
-37.20
-37.52
-38.15
-39.20
-40.62
-42.21
-43.72
-44.84
-45.31
-44.95
-43.65
-41.36
-38.11
-34.00
-29.16
-23.76
-17.95
-11.91
-5.86
-0.04
5.33
10.04
13.98
17.08
19.33
20.79
21.60
22.03
22.42
23.12
24.33
26.00
27.96
29.97
31.91
33.82
35.78
37.76
39.51
40.59
40.58
39.35
37.05
34.10
30.96
27.97
25.36
23.27
21.85
21.23
21.42
22.23
23.24
23.95
24.05
23.46
22.44
21.40
20.72
20.56
20.86
21.37
21.78
21.84
21.48
20.79
19.97
19.24
18.77
18.59
18.68
18.92
19.20
19.42
19.46
19.23
18.71
17.90
16.89
15.76
14.62
13.49
12.35
11.12
9.72
8.07
6.15
4.01
1.82
-0.15
-1.57
-2.18
-1.92
-1.00
0.20
1.23
1.76
1.70
1.18
0.41
-0.43
-1.25
-2.08
-2.95
-3.86
-4.75
-5.61
-6.44
-7.31
-8.27
-9.27
-10.18
-10.80
-11.02
-10.86
-10.50
-10.14
-9.91
-9.79
-9.71
-9.59
-9.47
-9.50
-9.84
-10.56
-11.51
-12.39
-12.84
-12.60
-11.63
-10.07
-8.20
-6.28
-4.49
-2.95
-1.64
-0.54
0.42
1.26
2.01
2.63
3.05
3.21
3.10
2.77
2.36
2.04
1.88
1.87
1.90
1.81
1.57
1.19
0.79
0.47
0.25
0.11
0.01
-0.05
-0.06
-0.01
0.05
0.02
-0.23
-0.80
-1.69
-2.81
-3.99
-5.01
-5.65
-5.73
-5.19
-4.08
-2.56
-0.86
0.79
2.20
3.26
3.96
4.35
4.49
4.47
4.34
4.14
3.89
3.60
3.29
2.97
2.70
2.49
2.39
2.38
2.46
2.60
2.74
2.85
2.88
2.80
2.58
2.25
1.81
1.30
0.75
0.20
-0.33
-0.81
-1.26
-1.74
-2.29
-2.95
-3.69
-4.42
-5.00
-5.30
-5.25
-4.81
-4.03
-3.00
-1.83
-0.61
0.56
1.60
2.43
2.97
3.21
3.16
2.89
2.50
2.09
1.69
1.32
0.94
0.58
0.28
0.14
0.21
0.46
0.73
0.87
0.80
0.55
0.26
0.06
0.00
0.02
-0.03
-0.23
-0.59
-1.03
-1.44
-1.72
-1.89
-2.00
-2.13
-2.33
-2.61
-2.93
-3.28
-3.62
-3.97
-4.36
-4.84
-5.44
-6.10
-6.68
-6.99
-6.85
-6.15
-4.97
-3.53
-2.16
-1.17
-0.69
-0.60
-0.65
-0.56
-0.19
0.36
0.85
1.04
0.81
0.28
-0.30
-0.66
-0.69
-0.42
-0.02
0.37
0.65
0.83
0.96
1.04
1.00
0.77
0.27
-0.45
-1.21
-1.78
-2.00
-1.88
-1.62
-1.54
-1.91
-2.85
-4.21
-5.70
-7.00
-7.90
-8.36
-8.55
-8.68
-8.93
-9.41
-10.11
-10.93
-11.77
-12.52
-13.06
-13.27
-13.00
-12.18
-10.83
-9.11
-7.30
-5.71
-4.51
-3.66
-2.90
-1.89
-0.37
1.74
4.37
7.36
10.67
14.32
18.33
22.47
26.21
28.74
29.28
27.33
22.89
16.51
9.08
1.61
-5.03
-10.22
-13.73
-15.57
-16.07
-15.65
-14.85
-14.17
-14.00
-14.57
-15.90
-17.76
-19.75
-21.40
-22.33
-22.38
-21.64
-20.30
-18.52
-16.33
-13.63
-10.43
-6.92
-3.57
-0.92
0.79
1.89
3.25
6.09
11.41
19.65
30.52
43.14
56.50
69.84
82.80
95.06
106.03
114.76
120.23
121.78
119.41
113.70
105.65
96.25
85.89
74.38
61.28
46.46
30.23
13.17
-4.22
-21.36
-37.67
-52.77
-66.44
-78.54
-88.80
-96.81
-102.22
-104.97
-104.81
-101.44
-94.84
-85.35
-73.45
-59.55
-44.01
-26.45
-9.64
2.16
6.20
2.85
-5.23
-14.70
-22.67
-27.38
-28.58
-27.25
-24.34
-20.29
-15.44
-9.70
-3.53
2.09
5.95
6.85
4.09
-1.87
-9.52
-17.03
-22.88
-26.35
-27.51
-26.46
-23.87
-20.64
-17.33
-14.03
-10.64
-7.12
-3.69
-0.66
1.72
3.30
4.26
5.02
5.99
7.23
8.34
8.69
7.78
5.58
2.45
-0.98
-4.09
-6.53
-8.29
-9.57
-10.60
-11.48
-12.14
-12.49
-12.50
-12.24
-11.86
-11.61
-11.69
-12.23
-13.12
-13.94
-14.08
-12.89
-10.04
-5.71
-0.65
4.13
7.87
10.42
12.34
14.57
17.77
21.87
25.87
28.01
26.28
19.04
5.41
-14.38
-38.82
-65.03
-89.05
-106.57
-113.97
-109.48
-93.88
-70.35
-43.44
-17.59
4.13
20.67
32.61
41.25
47.63
52.02
54.09
53.46
50.30
45.52
40.48
36.32
33.46
31.39
28.95
25.01
19.10
11.64
3.75
-3.23
-8.27
-10.94
-11.38
-10.05
-7.43
-3.77
0.92
6.73
13.66
21.40
29.29
36.37
41.62
44.33
44.22
41.53
36.78
30.62
23.58
16.05
8.47
1.27
-5.07
-10.23
-14.14
-16.91
-18.59
-18.97
-17.51
-13.65
-7.35
0.57
8.39
14.21
16.75
16.05
13.40
10.71
9.55
10.40
12.63
15.00
16.41
16.40
15.20
13.33
11.19
8.85
6.11
2.91
-0.48
-3.43
-5.18
-5.13
-3.18
0.29
4.52
8.66
12.08
14.50
15.98
16.81
17.33
17.75
18.14
18.39
18.29
17.61
16.16
13.87
10.77
6.96
2.61
-2.01
-6.52
-10.42
-13.23
-14.62
-14.55
-13.34
-11.48
-9.47
-7.64
-6.13
-5.02
-4.35
-4.28
-4.88
-6.10
-7.69
-9.27
-10.56
-11.42
-11.93
-12.16
-12.09
-11.53
-10.19
-7.86
-4.50
-0.32
4.34
9.10
13.60
17.56
20.73
22.90
24.01
24.13
23.52
22.53
21.51
20.65
19.93
19.19
18.12
16.48
14.21
11.47
8.63
6.19
4.57
3.95
4.25
5.14
6.20
7.09
7.62
7.75
7.52
6.95
6.07
4.95
3.71
2.48
1.39
0.44
-0.44
-1.33
-2.26
-3.19
-4.00
-4.63
-5.11
-5.58
-6.16
-6.92
-7.81
-8.68
-9.35
-9.66
-9.51
-8.93
-8.03
-6.94
-5.80
-4.70
-3.60
-2.47
-1.24
0.02
1.17
2.04
2.53
2.73
2.87
3.22
3.99
5.18
6.60
7.99
9.11
9.86
10.38
10.95
11.98
13.86
16.86
20.97
25.85
30.73
34.56
36.14
34.49
29.23
20.79
10.43
-0.01
-8.63
-14.02
-15.61
-13.79
-9.61
-4.47
0.36
3.89
5.61
5.34
3.28
-0.05
-3.90
-7.33
-9.52
-9.94
-8.55
-5.86
-2.78
-0.36
0.53
-0.64
-3.93
-8.94
-14.99
-21.28
-27.08
-31.86
-35.36
-37.50
-38.36
-38.10
-36.88
-34.96
-32.67
-30.47
-28.73
-27.67
-27.17
-26.83
-26.13
-24.66
-22.34
-19.35
-16.07
-12.81
-9.71
-6.68
-3.59
-0.42
2.70
5.47
7.64
9.15
10.18
11.02
11.87
12.70
13.27
13.30
12.63
11.38
9.92
8.62
7.71
7.26
7.22
7.63
8.64
10.34
12.52
14.59
15.66
14.98
12.32
8.23
3.83
0.39
-1.15
-0.49
2.06
5.82
10.03
14.09
17.52
19.88
20.74
19.81
17.10
13.05
8.54
4.58
1.94
0.89
1.09
1.85
2.47
2.57
2.25
1.85
1.75
2.09
2.65
3.01
2.74
1.57
-0.50
-3.24
-6.29
-9.30
-11.97
-14.12
-15.63
-16.52
-16.79
-16.51
-15.72
-14.49
-12.94
-11.17
-9.31
-7.53
-5.98
-4.83
-4.28
-4.45
-5.40
-7.05
-9.15
-11.37
-13.39
-14.98
-16.13
-17.12
-18.39
-20.44
-23.55
-27.51
-31.52
-34.33
-34.60
-31.37
-24.40
-14.34
-2.47
9.68
20.80
30.05
37.13
42.18
45.49
47.31
47.60
45.98
41.75
34.13
22.64
7.52
-9.91
-27.36
-41.92
-50.93
-52.76
-47.39
-36.31
-22.06
-7.34
5.78
16.13
23.48
28.12
30.55
31.23
30.64
29.30
27.84
26.97
27.32
29.35
33.16
38.42
44.23
49.11
51.14
48.33
39.25
23.61
2.62
-21.15
-44.32
-63.60
-76.48
-81.71
-79.30
-70.25
-56.26
-39.26
-21.29
-4.20
10.48
21.71
29.05
32.53
32.52
29.54
24.11
16.79
8.20
-0.90
-9.74
-17.62
-24.12
-29.13
-32.81
-35.38
-37.03
-37.87
-38.01
-37.73
-37.58
-38.34
-40.78
-45.39
-52.01
-59.71
-66.82
-71.36
-71.57
-66.48
-56.21
-41.92
-25.38
-8.42
7.60
21.85
33.96
43.63
50.51
54.29
54.97
53.18
50.18
47.49
46.44
47.67
50.96
55.37
59.66
62.71
63.74
62.38
58.51
52.05
42.96
31.22
17.00
0.71
-16.95
-35.10
-52.66
-68.26
-80.19
-86.50
-85.38
-75.89
-58.60
-35.83
-11.09
11.92
30.53
43.82
52.49
58.06
61.80
64.00
63.90
60.25
52.11
39.47
23.39
5.74
-11.26
-25.61
-35.82
-41.10
-41.34
-37.04
-29.17
-19.01
-8.07
2.12
10.23
15.40
17.43
16.82
14.62
12.01
9.91
8.74
8.36
8.29
8.01
7.27
6.10
4.77
3.60
2.82
2.45
2.36
2.30
2.07
1.56
0.75
-0.28
-1.38
-2.34
-2.91
-2.86
-2.10
-0.60
1.52
3.98
6.42
8.50
10.00
10.77
10.70
9.70
7.93
5.72
3.43
1.40
-0.16
-1.14
-1.61
-1.89
-2.40
-3.07
-3.64
-3.85
-3.72
-3.44
-3.23
-3.30
-3.84
-5.07
-6.26
-6.46
-4.99
-1.87
2.27
6.62
10.41
13.06
14.32
15.50
18.39
24.59
34.70
48.48
65.45
85.12
106.98
123.50
127.93
117.21
94.22
65.29
36.05
9.92
-11.66
-28.51
-41.24
-49.82
-54.26
-54.98
-52.84
-49.53
-46.36
-44.10
-43.10
-43.45
-44.25
-44.48
-43.46
-41.31
-38.69
-36.28
-34.53
-33.56
-33.40
-33.48
-33.13
-31.95
-29.99
-27.64
-25.26
-23.06
-21.07
-19.23
-17.19
-14.57
-11.19
-7.22
-3.11
0.69
3.88
6.37
8.26
9.80
11.29
12.83
14.36
15.63
16.42
16.54
15.90
14.51
12.46
9.92
7.17
4.50
2.14
0.19
-1.41
-2.80
-4.20
-5.79
-7.68
-9.87
-12.26
-14.55
-16.33
-17.17
-16.76
-15.11
-12.59
-9.82
-7.43
-5.90
-5.33
-5.56
-6.25
-7.08
-7.84
-8.39
-8.65
-8.59
-8.20
-7.56
-6.77
-5.93
-5.10
-4.22
-3.19
-1.92
-0.39
1.35
3.15
4.85
6.31
7.41
8.13
8.47
8.53
8.43
8.29
8.20
8.15
8.09
7.96
7.71
7.34
6.86
6.31
5.72
5.11
4.51
3.92
3.35
2.77
2.18
1.59
1.08
0.73
0.58
0.63
0.81
1.01
1.18
1.31
1.44
1.62
1.85
2.08
2.25
2.34
2.37
2.36
2.31
2.13
1.71
0.92
-0.30
-1.88
-3.67
-5.43
-6.99
-8.27
-9.37
-10.51
-11.97
-13.99
-16.63
-19.74
-22.99
-25.90
-28.00
-28.89
-28.38
-26.49
-23.46
-19.62
-15.31
-10.82
-6.37
-2.16
1.64
4.82
7.25
8.90
9.88
10.41
10.75
11.08
11.52
12.08
12.74
13.47
14.24
14.93
15.40
15.45
14.94
13.84
12.25
10.41
8.54
6.81
5.31
4.08
3.12
2.44
2.01
1.70
1.32
0.65
-0.44
-1.89
-3.46
-4.80
-5.62
-5.77
-5.28
-4.31
-3.05
-1.71
-0.50
0.39
0.72
0.40
-0.53
-1.85
-3.21
-4.32
-5.01
-5.31
-5.32
-5.20
-4.99
-4.72
-4.36
-3.97
-3.62
-3.43
-3.44
-3.67
-4.07
-4.63
-5.37
-6.33
-7.51
-8.81
-10.03
-10.96
-11.50
-11.68
-11.72
-11.87
-12.37
-13.26
-14.39
-15.39
-15.80
-15.13
-13.11
-9.69
-5.11
0.15
5.56
10.64
15.09
18.80
21.80
24.17
26.02
27.40
28.30
28.60
28.14
26.71
24.20
20.65
16.33
11.65
7.02
2.75
-1.01
-4.23
-6.88
-8.84
-9.98
-10.17
-9.44
-7.99
-6.14
-4.14
-2.17
-0.24
1.66
3.50
5.18
6.51
7.36
7.70
7.66
7.47
7.37
7.49
7.84
8.35
8.88
9.35
9.71
10.01
10.28
10.60
10.98
11.41
11.80
12.03
11.99
11.56
10.72
9.51
8.03
6.37
4.61
2.76
0.80
-1.31
-3.54
-5.83
-8.05
-10.10
-11.89
-13.38
-14.59
-15.54
-16.29
-16.86
-17.31
-17.64
-17.87
-17.98
-17.92
-17.65
-17.12
-16.32
-15.29
-14.13
-12.92
-11.72
-10.52
-9.28
-7.92
-6.38
-4.60
-2.60
-0.48
1.63
3.50
4.94
5.79
6.07
5.93
5.68
5.67
6.18
7.32
8.98
10.89
12.68
14.02
14.69
14.61
13.84
12.52
10.84
8.98
7.03
5.06
3.13
1.29
-0.33
-1.61
-2.45
-2.86
-2.95
-2.94
-3.05
-3.46
-4.21
-5.26
-6.51
-7.80
-9.04
-10.19
-11.26
-12.25
-13.18
-13.97
-14.52
-14.71
-14.45
-13.73
-12.57
-11.06
-9.32
-7.52
-5.81
-4.27
-2.87
-1.53
-0.18
1.02
1.75
1.59
0.36
-1.72
-3.94
-5.32
-5.02
-2.61
1.78
7.68
14.47
21.59
28.45
34.42
38.77
40.93
40.83
39.05
36.70
35.00
34.73
35.94
38.02
40.07
41.34
41.51
40.61
38.79
36.17
32.67
28.19
22.75
16.59
10.17
4.02
-1.43
-5.91
-9.40
-12.03
-14.01
-15.57
-16.85
-17.92
-18.82
-19.53
-20.04
-20.28
-20.21
-19.76
-18.90
-17.66
-16.09
-14.28
-12.31
-10.23
-8.10
-6.02
-4.17
-2.69
-1.70
-1.10
-0.57
0.31
1.97
4.64
8.18
12.17
15.95
18.87
20.50
20.67
19.48
17.24
14.31
11.09
7.91
5.00
2.41
-0.00
-2.57
-5.53
-8.88
-12.16
-14.56
-15.32
-14.17
-11.75
-9.53
-9.40
-12.86
-20.40
-31.14
-43.07
-53.78
-61.19
-64.18
-62.66
-57.41
-49.50
-39.98
-29.66
-19.16
-9.04
0.14
7.79
13.49
16.96
18.16
17.16
14.08
9.01
2.15
-6.07
-14.85
-23.10
-29.63
-33.51
-34.33
-32.28
-28.09
-22.68
-16.93
-11.45
-6.62
-2.63
0.41
2.43
3.47
3.70
3.43
3.00
2.63
2.40
2.17
1.79
1.17
0.40
-0.30
-0.68
-0.65
-0.32
0.04
0.20
0.06
-0.25
-0.47
-0.40
0.05
0.74
1.51
2.22
2.83
3.37
3.91
4.43
4.88
5.16
5.26
5.20
5.07
4.92
4.73
4.46
4.01
3.33
2.42
1.37
0.35
-0.47
-0.96
-1.09
-0.93
-0.69
-0.59
-0.78
-1.29
-2.01
-2.73
-3.27
-3.52
-3.56
-3.60
-3.89
-4.67
-5.97
-7.67
-9.46
-11.00
-12.07
-12.66
-13.01
-13.49
-14.55
-16.60
-19.86
-24.18
-28.94
-33.03
-35.17
-34.29
-30.01
-22.88
-14.13
-5.28
2.49
8.61
13.12
16.37
18.64
19.94
20.08
18.91
16.53
13.42
10.38
8.29
7.84
9.31
12.41
16.46
20.57
24.03
26.48
27.97
28.75
29.00
28.74
27.76
25.85
23.00
19.48
15.81
12.54
10.09
8.60
7.87
7.57
7.35
7.00
6.52
6.04
5.72
5.64
5.75
5.88
5.87
5.57
4.97
4.16
3.32
2.56
1.97
1.49
1.01
0.41
-0.39
-1.28
-2.11
-2.67
-2.86
-2.74
-2.49
-2.30
-2.24
-2.28
-2.29
-2.23
-2.19
-2.33
-2.78
-3.54
-4.46
-5.27
-5.77
-5.94
-5.90
-5.86
-6.00
-6.39
-7.01
-7.79
-8.64
-9.53
-10.36
-11.05
-11.44
-11.42
-10.92
-9.97
-8.63
-7.03
-5.23
-3.29
-1.20
1.01
3.27
5.45
7.39
8.89
9.84
10.19
10.05
9.60
9.07
8.62
8.32
8.14
7.95
7.67
7.30
6.92
6.61
6.41
6.28
6.12
5.82
5.31
4.63
3.83
3.00
2.16
1.33
0.51
-0.24
-0.87
-1.31
-1.55
-1.67
-1.77
-1.97
-2.31
-2.75
-3.14
-3.34
-3.26
-2.94
-2.50
-2.10
-1.85
-1.74
-1.66
-1.52
-1.24
-0.86
-0.45
-0.11
0.12
0.25
0.31
0.33
0.37
0.45
0.66
1.08
1.73
2.50
3.17
3.40
2.94
1.73
-0.06
-2.04
-3.74
-4.81
-5.06
-4.56
-3.55
-2.28
-1.01
0.08
0.89
1.32
1.35
1.01
0.38
-0.40
-1.19
-1.92
-2.57
-3.14
-3.60
-3.90
-4.02
-3.95
-3.79
-3.70
-3.78
-4.09
-4.58
-5.15
-5.71
-6.20
-6.59
-6.86
-6.97
-6.94
-6.86
-6.88
-7.12
-7.63
-8.29
-8.87
-9.09
-8.69
-7.53
-5.60
-3.03
-0.06
2.93
5.52
7.33
8.20
8.23
7.75
7.22
6.93
6.98
7.20
7.29
6.99
6.20
4.99
3.56
2.17
1.01
0.22
-0.15
-0.14
0.15
0.56
0.94
1.14
1.13
0.98
0.80
0.73
0.84
1.12
1.46
1.76
2.00
2.21
2.43
2.65
2.79
2.77
2.54
2.12
1.62
1.21
0.96
0.88
0.86
0.82
0.73
0.58
0.39
0.17
-0.05
-0.24
-0.40
-0.55
-0.67
-0.77
-0.99
-1.53
-2.53
-3.93
-5.48
-6.86
-7.88
-8.34
-8.26
-7.92
-7.81
-8.35
-9.67
-11.55
-13.70
-15.90
-17.74
-18.97
-19.59
-19.91
-20.24
-20.61
-20.76
-20.25
-18.56
-14.65
-7.42
3.72
18.48
35.70
53.78
71.09
86.32
95.72
96.52
88.67
75.20
59.94
45.28
31.88
19.78
9.15
0.48
-5.33
-7.82
-7.50
-5.80
-4.42
-4.47
-6.23
-9.34
-13.14
-16.60
-18.85
-19.52
-18.87
-17.42
-15.57
-13.39
-10.74
-7.56
-3.76
0.52
4.87
8.75
11.83
14.18
16.23
18.37
20.78
23.54
26.57
29.71
32.56
34.74
36.08
36.70
37.08
37.92
39.88
43.24
47.82
52.80
57.41
61.34
64.84
68.54
73.07
78.76
85.68
93.66
102.02
109.78
115.64
118.14
115.92
108.15
94.69
75.77
54.03
32.00
11.76
-5.47
-19.49
-30.85
-40.43
-49.07
-57.27
-65.04
-72.33
-78.92
-84.58
-89.14
-92.52
-94.73
-95.81
-95.82
-94.77
-92.91
-90.46
-87.61
-84.44
-80.93
-76.98
-72.51
-67.54
-62.14
-56.70
-51.65
-47.43
-44.32
-42.35
-41.26
-40.66
-40.10
-39.29
-38.13
-36.73
-35.24
-33.85
-32.67
-31.73
-30.99
-30.36
-29.71
-28.92
-27.96
-26.83
-25.65
-24.55
-23.65
-23.04
-22.69
-22.57
-22.58
-22.64
-22.67
-22.61
-22.44
-22.13
-21.66
-21.05
-20.32
-19.54
-18.84
-18.36
-18.21
-18.39
-18.79
-19.15
-19.18
-18.63
-17.37
-15.35
-12.62
-9.27
-5.44
-1.33
2.82
6.71
10.12
12.88
15.00
16.53
17.56
18.14
18.29
18.06
17.55
16.97
16.55
16.48
16.79
17.35
17.91
18.22
18.14
17.71
17.09
16.49
16.01
15.60
15.10
14.37
13.36
12.13
10.83
9.59
8.43
7.33
6.23
5.13
4.07
3.07
2.12
1.17
0.10
-1.12
-2.46
-3.80
-4.89
-5.51
-5.42
-4.49
-2.72
-0.29
2.43
4.98
6.97
8.22
8.80
8.98
9.02
9.04
8.97
8.62
7.90
6.91
5.93
5.24
5.02
5.17
5.49
5.71
5.73
5.63
5.55
5.60
5.74
5.80
5.56
4.87
3.74
2.29
0.76
-0.67
-1.88
-2.86
-3.71
-4.58
-5.63
-6.91
-8.44
-10.13
-11.92
-13.73
-15.55
-17.41
-19.38
-21.55
-24.01
-26.80
-29.85
-32.93
-35.74
-37.90
-39.19
-39.58
-39.35
-38.97
-38.96
-39.76
-41.53
-44.22
-47.54
-51.22
-55.07
-59.11
-63.48
-68.28
-73.46
-78.67
-83.39
-87.06
-89.25
-89.79
-88.77
-86.46
-83.22
-79.50
-75.80
-72.59
-70.05
-67.90
-65.19
-60.63
-53.09
-42.25
-28.84
-14.66
-1.98
7.32
12.45
13.83
12.65
10.31
8.00
6.65
6.86
8.90
12.79
18.26
24.81
31.73
38.33
44.06
48.96
53.17
56.79
59.90
62.78
65.95
69.96
75.14
81.47
89.48
99.12
109.58
119.67
128.44
135.33
139.99
142.13
141.66
140.50
140.12
140.73
141.60
142.06
141.85
140.85
138.90
135.83
134.44
136.46
141.36
147.16
152.27
156.23
159.22
161.46
162.92
166.89
174.77
184.80
193.47
198.28
198.78
195.86
190.73
161.97
103.00
25.37
-50.18
-109.76
-150.51
-175.69
-190.02
-197.54
-201.07
-198.74
-189.68
-175.81
-160.87
-147.83
-137.83
-130.77
-126.19
-123.68
-120.15
-113.85
-105.38
-96.82
-89.69
-84.24
-79.98
-76.33
-72.96
-68.11
-61.00
-52.48
-44.42
-38.21
-34.20
-31.96
-30.81
-30.18
-28.89
-26.40
-23.03
-19.66
-16.92
-15.04
-13.93
-13.38
-13.23
-13.02
-12.48
-11.61
-10.66
-9.88
-9.42
-9.34
-9.60
-10.09
-10.62
-11.25
-11.85
-12.26
-12.34
-11.95
-11.01
-9.52
-7.55
-5.24
-2.83
-0.48
1.65
3.49
5.01
6.24
7.20
7.90
8.37
8.58
8.59
8.38
7.99
7.50
7.04
6.75
6.74
6.99
7.41
7.87
8.27
8.59
8.93
9.44
10.22
11.27
12.46
13.60
14.46
14.89
14.76
14.02
12.67
10.76
8.38
5.65
2.70
-0.36
-3.46
-6.52
-9.45
-12.09
-14.21
-15.55
-15.86
-15.04
-13.18
-10.52
-7.38
-4.05
-0.72
2.63
6.06
9.63
13.28
16.77
19.76
21.92
23.04
23.08
22.24
20.79
18.99
16.99
14.80
12.35
9.60
6.63
3.66
1.00
-1.10
-2.55
-3.46
-4.13
-4.86
-5.87
-7.22
-8.78
-10.32
-11.60
-12.43
-12.80
-12.79
-12.60
-12.39
-12.29
-12.29
-12.28
-12.15
-11.74
-10.98
-9.80
-8.20
-6.27
-4.15
-2.12
-0.43
0.68
1.14
1.05
0.60
0.07
-0.35
-0.52
-0.37
0.10
0.88
1.94
3.19
4.49
5.65
6.50
6.93
6.95
6.67
6.27
5.93
5.76
5.75
5.81
5.81
5.69
5.47
5.25
5.13
5.15
5.24
5.33
5.34
5.29
5.25
5.31
5.46
5.64
5.72
5.64
5.40
5.06
4.70
4.38
4.12
3.93
3.83
3.87
4.07
4.40
4.74
4.94
4.87
4.47
3.79
2.93
2.07
1.36
0.90
0.73
0.84
1.13
1.49
1.73
1.70
1.31
0.57
-0.45
-1.61
-2.82
-4.03
-5.24
-6.47
-7.70
-8.88
-9.91
-10.70
-11.17
-11.29
-11.05
-10.44
-9.47
-8.18
-6.64
-4.97
-3.32
-1.79
-0.48
0.58
1.38
1.91
2.22
2.35
2.38
2.40
2.50
2.70
2.96
3.20
3.32
3.26
2.99
2.56
1.98
1.32
0.65
0.04
-0.39
-0.58
-0.47
-0.12
0.40
0.99
1.60
2.18
2.67
3.04
3.21
3.16
2.93
2.61
2.33
2.19
2.22
2.40
2.64
2.89
3.11
3.29
3.45
3.61
3.79
3.99
4.22
4.46
4.68
4.81
4.79
4.60
4.26
3.82
3.40
3.10
2.95
2.93
2.94
2.87
2.66
2.35
2.04
1.84
1.85
2.04
2.32
2.58
2.72
2.69
2.50
2.22
1.91
1.61
1.36
1.20
1.14
1.22
1.47
1.85
2.33
2.82
3.28
3.65
3.92
4.10
4.20
4.23
4.15
3.94
3.56
3.02
2.39
1.74
1.15
0.63
0.20
-0.15
-0.43
-0.59
-0.60
-0.44
-0.15
0.17
0.39
0.39
0.15
-0.30
-0.81
-1.27
-1.60
-1.82
-2.00
-2.26
-2.67
-3.24
-3.93
-4.62
-5.24
-5.71
-6.04
-6.28
-6.52
-6.86
-7.40
-8.19
-9.15
-10.14
-10.94
-11.35
-11.24
-10.63
-9.63
-8.45
-7.29
-6.29
-5.56
-5.10
-4.89
-4.81
-4.73
-4.51
-4.04
-3.31
-2.41
-1.49
-0.70
-0.12
0.28
0.61
0.95
1.34
1.71
1.99
2.11
2.12
2.06
1.98
1.87
1.65
1.29
0.81
0.31
-0.09
-0.34
-0.50
-0.68
-0.98
-1.40
-1.89
-2.37
-2.86
-3.43
-4.16
-5.07
-6.04
-6.89
-7.45
-7.68
-7.72
-7.77
-7.98
-8.36
-8.79
-9.05
-9.03
-8.70
-8.17
-7.61
-7.10
-6.63
-6.14
-5.55
-4.82
-3.97
-3.01
-1.99
-0.96
0.01
0.86
1.53
2.06
2.51
2.96
3.43
3.91
4.34
4.72
5.05
5.37
5.66
5.82
5.75
5.37
4.73
3.98
3.30
2.85
2.64
2.60
2.61
2.55
2.39
2.15
1.87
1.58
1.28
0.94
0.58
0.22
-0.11
-0.41
-0.70
-1.03
-1.47
-2.03
-2.64
-3.13
-3.33
-3.12
-2.52
-1.67
-0.80
-0.09
0.35
0.56
0.62
0.66
0.74
0.87
0.99
1.04
0.98
0.82
0.59
0.32
0.05
-0.23
-0.50
-0.74
-0.92
-1.02
-1.05
-1.06
-1.16
-1.43
-1.93
-2.63
-3.44
-4.23
-4.87
-5.26
-5.34
-5.08
-4.48
-3.52
-2.23
-0.64
1.14
2.97
4.66
6.06
7.06
7.63
7.86
7.84
7.69
7.51
7.34
7.23
7.19
7.19
7.17
7.07
6.79
6.30
5.70
5.12
4.72
4.64
4.89
5.43
6.19
7.06
7.97
8.85
9.61
10.20
10.57
10.74
10.74
10.57
10.18
9.46
8.33
6.72
4.75
2.60
0.58
-1.03
-2.01
-2.25
-1.79
-0.80
0.44
1.67
2.64
3.22
3.40
3.21
2.74
2.09
1.33
0.59
-0.04
-0.47
-0.68
-0.67
-0.53
-0.36
-0.30
-0.42
-0.78
-1.34
-2.01
-2.70
-3.34
-3.92
-4.50
-5.17
-5.99
-6.99
-8.14
-9.38
-10.66
-11.89
-12.98
-13.80
-14.22
-14.14
-13.52
-12.42
-10.94
-9.22
-7.40
-5.55
-3.72
-1.99
-0.40
0.95
1.99
2.67
3.00
3.08
3.04
3.00
3.02
3.08
3.13
3.14
3.13
3.19
3.40
3.79
4.29
4.76
4.98
4.83
4.27
3.43
2.52
1.76
1.31
1.21
1.39
1.74
2.13
2.49
2.76
2.93
3.04
3.14
3.35
3.75
4.40
5.23
6.04
6.56
6.52
5.76
4.31
2.37
0.21
-1.87
-3.64
-4.94
-5.74
-6.02
-5.85
-5.33
-4.60
-3.79
-3.04
-2.40
-1.92
-1.57
-1.36
-1.25
-1.25
-1.34
-1.49
-1.63
-1.68
-1.57
-1.25
-0.69
0.09
1.11
2.38
4.01
6.13
8.86
12.14
15.69
18.97
21.35
22.27
21.46
19.00
15.25
10.77
6.13
1.81
-1.85
-4.65
-6.57
-7.73
-8.45
-9.10
-10.02
-11.32
-12.89
-14.36
-15.25
-15.09
-13.64
-10.99
-7.55
-3.98
-0.94
1.07
1.87
1.63
0.73
-0.39
-1.40
-2.08
-2.31
-2.10
-1.45
-0.47
0.66
1.71
2.51
2.96
3.15
3.23
3.37
3.62
3.90
4.08
4.06
3.86
3.56
3.29
3.08
2.90
2.64
2.26
1.78
1.30
0.95
0.79
0.79
0.87
0.91
0.87
0.74
0.57
0.40
0.22
0.04
-0.17
-0.44
-0.75
-1.05
-1.29
-1.40
-1.38
-1.27
-1.16
-1.11
-1.11
-1.10
-1.03
-0.87
-0.69
-0.62
-0.75
-1.09
-1.54
-1.97
-2.28
-2.47
-2.60
-2.76
-3.00
-3.29
-3.57
-3.75
-3.78
-3.65
-3.44
-3.23
-3.09
-2.99
-2.90
-2.74
-2.46
-2.09
-1.68
-1.29
-0.97
-0.73
-0.54
-0.40
-0.32
-0.30
-0.29
-0.22
-0.01
0.35
0.78
1.16
1.35
1.32
1.18
1.10
1.23
1.61
2.13
2.61
2.82
2.67
2.20
1.53
0.83
0.19
-0.35
-0.83
-1.31
-1.77
-2.16
-2.39
-2.41
-2.26
-2.09
-2.03
-2.20
-2.54
-2.91
-3.10
-2.95
-2.46
-1.77
-1.09
-0.64
-0.49
-0.62
-0.88
-1.13
-1.30
-1.39
-1.47
-1.60
-1.75
-1.82
-1.69
-1.28
-0.62
0.11
0.73
1.11
1.23
1.20
1.15
1.16
1.19
1.13
0.89
0.47
-0.00
-0.36
-0.48
-0.38
-0.17
-0.03
-0.06
-0.25
-0.51
-0.70
-0.77
-0.73
-0.67
-0.66
-0.73
-0.85
-0.96
-1.01
-1.02
-0.99
-0.93
-0.81
-0.58
-0.22
0.26
0.80
1.34
1.85
2.30
2.68
2.95
3.02
2.88
2.53
2.09
1.67
1.39
1.24
1.19
1.13
1.01
0.80
0.52
0.22
-0.08
-0.39
-0.75
-1.17
-1.63
-2.06
-2.43
-2.72
-2.99
-3.30
-3.70
-4.17
-4.61
-4.92
-5.01
-4.91
-4.72
-4.55
-4.46
-4.46
-4.48
-4.43
-4.25
-3.96
-3.55
-3.06
-2.51
-1.91
-1.33
-0.84
-0.53
-0.45
-0.62
-0.99
-1.43
-1.82
-2.01
-1.91
-1.51
-0.86
-0.09
0.65
1.23
1.60
1.78
1.85
1.89
1.95
1.99
1.98
1.88
1.72
1.54
1.39
1.26
1.13
0.94
0.71
0.48
0.35
0.37
0.49
0.60
0.60
0.43
0.16
-0.11
-0.29
-0.35
-0.39
-0.53
-0.86
-1.32
-1.76
-2.02
-2.01
-1.78
-1.49
-1.32
-1.38
-1.68
-2.14
-2.64
-3.14
-3.63
-4.17
-4.78
-5.43
-6.00
-6.34
-6.30
-5.80
-4.82
-3.44
-1.80
-0.02
1.77
3.54
5.22
6.78
8.13
9.19
9.87
10.17
10.16
10.00
9.88
9.95
10.25
10.65
10.98
11.06
10.80
10.24
9.48
8.67
7.88
7.16
6.50
5.86
5.23
4.60
3.98
3.36
2.72
2.05
1.35
0.64
-0.08
-0.75
-1.35
-1.82
-2.16
-2.37
-2.49
-2.57
-2.66
-2.79
-3.00
-3.29
-3.69
-4.16
-4.62
-4.96
-5.07
-4.92
-4.56
-4.09
-3.62
-3.19
-2.77
-2.27
-1.62
-0.78
0.20
1.24
2.23
3.05
3.62
3.86
3.75
3.33
2.68
1.92
1.21
0.65
0.25
-0.02
-0.24
-0.49
-0.76
-0.99
-1.10
-1.03
-0.79
-0.49
-0.24
-0.17
-0.34
-0.73
-1.28
-1.91
-2.55
-3.19
-3.81
-4.43
-5.01
-5.51
-5.84
-5.96
-5.89
-5.68
-5.44
-5.21
-5.00
-4.79
-4.56
-4.35
-4.20
-4.15
-4.20
-4.30
-4.39
-4.43
-4.42
-4.38
-4.38
-4.47
-4.70
-5.10
-5.60
-6.09
-6.41
-6.38
-5.94
-5.09
-3.91
-2.55
-1.11
0.27
1.45
2.27
2.62
2.46
1.92
1.25
0.69
0.44
0.55
0.93
1.44
1.93
2.32
2.61
2.82
2.96
3.03
3.02
2.95
2.83
2.71
2.64
2.61
2.58
2.47
2.17
1.65
0.97
0.25
-0.36
-0.74
-0.86
-0.82
-0.79
-0.91
-1.27
-1.85
-2.57
-3.35
-4.02
-4.46
-4.66
-4.70
-4.71
-4.80
-5.08
-5.57
-6.23
-6.78
-6.93
-6.54
-5.70
-4.69
-3.76
-3.03
-2.48
-2.03
-1.28
0.00
1.77
3.65
5.25
6.41
7.30
8.25
9.63
11.96
15.58
20.43
26.11
32.11
38.07
43.83
49.35
52.37
51.28
46.08
38.51
30.77
24.08
18.42
13.22
7.94
2.47
-2.55
-6.28
-8.33
-8.91
-8.64
-8.15
-7.85
-7.85
-8.08
-8.19
-7.86
-7.14
-6.32
-5.68
-5.32
-5.13
-4.95
-4.70
-4.28
-3.64
-2.97
-2.48
-2.36
-2.63
-3.23
-4.03
-4.97
-6.10
-6.88
-7.33
-7.70
-8.24
-9.01
-9.85
-10.46
-10.62
-10.32
-9.80
-9.46
-9.49
-9.76
-9.82
-9.23
-7.80
-5.80
-3.88
-2.76
-3.03
-4.92
-8.28
-12.71
-17.69
-22.59
-26.70
-29.20
-29.36
-26.83
-21.79
-15.05
-7.84
-1.41
3.37
6.36
8.12
9.64
11.84
15.24
19.74
24.75
29.40
32.83
34.37
33.66
30.62
25.37
18.32
10.16
1.79
-5.76
-11.57
-14.97
-15.72
-14.08
-10.76
-6.81
-3.36
-1.34
-1.23
-2.90
-5.72
-8.88
-11.65
-13.63
-14.64
-14.59
-13.25
-10.30
-5.53
0.94
8.59
16.64
24.42
31.56
38.14
44.47
50.83
57.26
63.51
69.15
73.72
76.82
78.17
77.62
75.28
71.60
67.42
63.72
61.32
60.49
60.77
61.09
60.24
57.26
51.82
44.12
34.75
24.35
13.53
2.79
-7.42
-16.71
-24.90
-32.09
-38.67
-45.11
-51.73
-58.45
-64.83
-70.22
-74.07
-76.07
-76.26
-74.91
-72.43
-69.27
-65.81
-62.35
-59.01
-55.83
-52.68
-49.47
-46.15
-42.79
-39.51
-36.38
-33.40
-30.47
-27.54
-24.63
-21.90
-19.54
-17.64
-16.16
-14.92
-13.72
-12.44
-11.09
-9.79
-8.68
-7.79
-7.07
-6.42
-5.74
-4.99
-4.22
-3.53
-3.06
-2.89
-3.05
-3.46
-4.00
-4.51
-4.86
-4.99
-4.94
-4.75
-4.52
-4.32
-4.22
-4.26
-4.46
-4.79
-5.19
-5.58
-5.85
-5.96
-5.86
-5.53
-4.95
-4.16
-3.21
-2.20
-1.26
-0.48
0.07
0.44
0.69
0.89
1.03
1.06
0.93
0.63
0.24
-0.08
-0.17
0.09
0.60
1.22
1.72
2.00
2.05
1.98
1.89
1.84
1.86
1.92
2.02
2.18
2.43
2.73
2.99
3.12
3.06
2.81
2.46
2.08
1.74
1.44
1.14
0.84
0.51
0.17
-0.24
-0.77
-1.48
-2.39
-3.40
-4.36
-5.05
-5.40
-5.43
-5.32
-5.30
-5.57
-6.21
-7.16
-8.25
-9.27
-9.94
-10.08
-9.55
-8.38
-6.71
-4.81
-2.94
-1.32
-0.05
0.87
1.48
1.83
1.97
1.95
1.86
1.82
1.95
2.23
2.59
2.88
2.99
2.90
2.72
2.62
2.74
3.11
3.64
4.21
4.70
5.05
5.26
5.36
5.35
5.17
4.80
4.24
3.60
2.99
2.51
2.19
1.97
1.77
1.51
1.21
0.88
0.55
0.23
-0.13
-0.57
-1.11
-1.69
-2.24
-2.70
-3.08
-3.47
-4.00
-4.78
-5.82
-7.06
-8.35
-9.48
-10.28
-10.62
-10.40
-9.60
-8.24
-6.35
-4.01
-1.36
1.39
3.98
6.14
7.70
8.60
8.93
8.88
8.71
8.62
8.76
9.14
9.68
10.27
10.77
11.08
11.16
11.00
10.56
9.77
8.57
6.89
4.82
2.46
-0.02
-2.49
-4.77
-6.59
-7.54
-7.23
-5.57
-2.99
-0.50
0.58
-0.92
-5.65
-13.59
-24.23
-36.89
-50.90
-65.61
-80.21
-93.60
-104.37
-111.17
-113.06
-109.83
-102.06
-90.99
-78.20
-65.25
-53.32
-43.06
-34.61
-27.65
-21.71
-16.30
-11.03
-5.64
0.07
6.23
12.85
19.75
26.53
32.68
37.69
41.23
43.20
43.76
43.16
41.73
39.71
37.32
34.78
32.37
30.47
29.37
29.27
30.12
31.67
33.57
35.51
37.31
38.94
40.38
41.60
42.53
43.06
43.18
42.95
42.54
42.11
41.73
41.34
40.78
39.85
38.41
36.37
33.71
30.40
26.39
21.60
16.01
9.69
2.92
-3.90
-10.35
-16.08
-21.00
-25.28
-29.22
-33.15
-37.25
-41.50
-45.64
-49.28
-52.03
-53.61
-53.92
-52.99
-51.00
-48.12
-44.54
-40.40
-35.83
-30.91
-25.68
-20.15
-14.30
-8.22
-2.10
3.70
8.82
13.15
16.99
21.05
26.20
33.01
41.30
50.15
58.06
63.61
65.96
65.15
61.96
57.50
52.75
48.27
44.21
40.56
37.32
34.66
32.78
31.70
31.17
30.64
29.51
27.34
24.13
20.26
16.37
12.97
10.31
8.22
6.32
4.21
1.74
-0.97
-3.59
-5.79
-7.36
-8.26
-8.54
-8.26
-7.45
-6.09
-4.26
-2.13
-0.00
1.81
3.09
3.79
4.03
4.02
3.95
3.89
3.80
3.59
3.21
2.72
2.26
2.01
2.07
2.40
2.82
3.13
3.17
2.94
2.52
2.04
1.63
1.35
1.17
1.04
0.93
0.79
0.60
0.37
0.10
-0.20
-0.56
-1.00
-1.58
-2.31
-3.13
-3.97
-4.68
-5.21
-5.57
-5.85
-6.21
-6.74
-7.46
-8.31
-9.23
-10.19
-11.23
-12.44
-13.84
-15.34
-16.72
-17.63
-17.79
-17.04
-15.49
-13.42
-11.24
-9.31
-7.80
-6.72
-5.93
-5.25
-4.54
-3.71
-2.76
-1.65
-0.38
1.07
2.64
4.23
5.68
6.87
7.79
8.55
9.35
10.35
11.60
12.97
14.24
15.18
15.64
15.61
15.15
14.39
13.42
12.31
11.15
10.03
9.07
8.32
7.74
7.18
6.39
5.18
3.48
1.47
-0.52
-2.10
-2.98
-3.12
-2.72
-2.15
-1.76
-1.80
-2.29
-3.08
-3.94
-4.70
-5.23
-5.56
-5.81
-6.18
-6.85
-7.97
-9.58
-11.51
-13.46
-15.00
-15.66
-15.09
-13.20
-10.22
-6.66
-3.17
-0.33
1.59
2.62
3.01
3.11
3.10
3.00
2.71
2.18
1.47
0.76
0.32
0.31
0.78
1.58
2.47
3.22
3.65
3.75
3.64
3.52
3.55
3.78
4.13
4.40
4.42
4.12
3.53
2.80
2.04
1.33
0.65
-0.04
-0.74
-1.39
-1.93
-2.26
-2.42
-2.47
-2.53
-2.70
-3.00
-3.40
-3.87
-4.37
-4.91
-5.51
-6.18
-6.82
-7.29
-7.40
-7.05
-6.26
-5.18
-4.05
-3.03
-2.21
-1.54
-0.91
-0.26
0.33
0.69
0.61
-0.01
-1.06
-2.27
-3.33
-4.00
-4.22
-4.13
-3.94
-3.85
-3.94
-4.20
-4.55
-4.94
-5.37
-5.87
-6.47
-7.15
-7.84
-8.49
-9.10
-9.71
-10.38
-11.07
-11.71
-12.19
-12.52
-12.83
-13.39
-14.41
-15.93
-17.67
-19.07
-19.50
-18.36
-15.33
-10.37
-3.79
3.82
11.75
19.24
25.71
30.81
34.47
36.77
37.93
38.16
37.66
36.71
35.59
34.58
33.80
33.20
32.56
31.65
30.40
28.94
27.53
26.43
25.78
25.52
25.47
25.43
25.29
25.02
24.68
24.32
23.97
23.65
23.37
23.16
23.04
22.99
22.97
22.90
22.71
22.39
21.99
21.61
21.37
21.31
21.39
21.45
21.27
20.59
19.23
17.08
14.14
10.56
6.61
2.56
-1.34
-5.04
-8.70
-12.76
-17.84
-24.50
-33.04
-43.21
-54.23
-64.86
-73.75
-79.83
-82.66
-82.43
-79.89
-75.92
-71.23
-66.15
-60.69
-54.71
-48.17
-41.32
-34.58
-28.41
-23.12
-18.74
-15.06
-11.80
-8.80
-6.04
-3.64
-1.67
-0.09
1.34
2.90
4.85
7.18
9.70
11.93
13.44
14.13
14.20
14.05
14.08
14.44
15.17
16.22
17.32
18.22
18.80
19.07
19.12
19.15
19.33
19.92
21.13
22.70
24.19
25.31
25.98
26.30
26.65
27.36
28.90
31.70
34.88
37.37
38.65
38.96
38.76
38.89
39.59
41.26
44.38
47.25
48.31
47.68
47.15
48.47
53.22
60.68
69.71
79.45
86.27
87.42
83.03
75.32
65.40
53.42
35.99
10.17
-24.85
-71.72
-130.71
-197.71
-265.31
-327.38
-378.93
-420.46
-453.80
-454.25
-408.24
-325.45
-233.15
-153.97
-106.27
-77.58
-56.30
-34.25
-6.72
27.79
65.78
104.05
141.46
171.49
189.20
192.29
183.91
169.05
148.06
122.36
91.29
58.58
29.47
9.98
1.71
3.44
12.74
23.91
31.52
33.23
30.74
26.90
25.12
26.20
29.61
34.13
37.56
38.20
35.77
31.67
27.24
23.88
21.74
20.52
19.82
18.99
17.58
15.56
13.51
11.89
11.27
11.69
12.87
14.29
15.38
15.70
15.08
13.73
12.04
10.61
9.77
9.41
9.11
8.50
7.46
6.14
4.88
4.01
3.99
4.98
6.76
8.99
11.48
14.22
17.26
20.49
23.59
26.55
29.16
31.06
31.92
31.71
30.72
29.34
27.92
23.94
16.68
7.36
-1.80
-9.33
-14.93
-18.97
-21.95
-24.30
-26.31
-27.70
-28.27
-28.09
-27.42
-26.49
-25.42
-24.24
-22.96
-21.61
-19.88
-17.81
-15.64
-13.87
-12.88
-12.69
-12.98
-13.26
-13.08
-12.04
-10.20
-8.06
-6.32
-5.46
-5.62
-6.53
-7.79
-9.01
-9.85
-10.27
-10.40
-10.49
-10.69
-11.03
-11.39
-11.59
-11.52
-11.17
-10.68
-10.28
-10.15
-10.32
-10.66
-10.92
-10.97
-10.80
-10.60
-10.64
-11.08
-11.91
-12.94
-13.86
-14.33
-14.14
-13.21
-11.63
-9.54
-7.16
-4.69
-2.32
-0.20
1.53
2.77
3.46
3.64
3.40
2.89
2.33
1.90
1.76
1.96
2.49
3.28
4.25
5.33
6.45
7.56
8.61
9.53
10.28
10.83
11.19
11.34
11.27
10.95
10.36
9.51
8.48
7.38
6.33
5.40
4.62
3.95
3.34
2.81
2.38
2.12
2.06
2.18
2.46
2.82
3.23
3.65
3.99
4.16
4.10
3.78
3.37
3.11
3.30
4.11
5.54
7.32
9.06
10.40
11.12
11.18
10.73
9.90
8.79
7.43
5.82
4.05
2.29
0.75
-0.34
-0.90
-0.99
-0.77
-0.48
-0.27
-0.21
-0.25
-0.29
-0.23
-0.06
0.21
0.48
0.70
0.85
0.96
1.05
1.10
1.03
0.79
0.38
-0.12
-0.56
-0.81
-0.86
-0.78
-0.71
-0.75
-0.91
-1.06
-1.04
-0.73
-0.06
0.90
2.08
3.30
4.38
5.03
4.98
4.02
2.23
-0.05
-2.23
-3.70
-4.09
-3.37
-1.81
0.15
2.11
3.85
5.28
6.45
7.36
8.01
8.33
8.29
7.89
7.20
6.34
5.45
4.67
4.14
3.92
4.00
4.32
4.81
5.38
5.95
6.45
6.80
6.94
6.83
6.49
5.98
5.42
4.88
4.38
3.93
3.48
2.96
2.33
1.58
0.73
-0.14
-0.98
-1.74
-2.44
-3.15
-3.92
-4.74
-5.47
-5.91
-5.91
-5.43
-4.57
-3.52
-2.41
-1.32
-0.30
0.58
1.13
1.14
0.54
-0.52
-1.61
-2.25
-2.09
-1.14
0.25
1.60
2.46
2.62
2.11
1.12
-0.18
-1.67
-3.32
-5.07
-6.79
-8.30
-9.37
-9.87
-9.78
-9.25
-8.51
-7.78
-7.20
-6.74
-6.33
-5.82
-5.13
-4.27
-3.37
-2.56
-1.99
-1.73
-1.75
-1.96
-2.16
-2.14
-1.67
-0.60
1.12
3.36
5.84
8.22
10.21
11.62
12.37
12.51
12.16
11.48
10.67
9.87
9.22
8.74
8.37
7.94
7.25
6.21
4.86
3.38
2.05
1.08
0.55
0.36
0.27
0.09
-0.29
-0.76
-1.10
-1.12
-0.73
-0.06
0.68
1.28
1.62
1.75
1.75
1.70
1.64
1.60
1.61
1.75
2.05
2.47
2.86
2.98
2.68
1.96
0.98
-0.01
-0.78
-1.19
-1.24
-1.01
-0.57
0.01
0.70
1.47
2.23
2.84
3.16
3.10
2.70
2.11
1.56
1.22
1.15
1.25
1.32
1.16
0.66
-0.15
-1.13
-2.08
-2.82
-3.24
-3.30
-3.04
-2.52
-1.84
-1.13
-0.52
-0.12
0.00
-0.12
-0.38
-0.65
-0.85
-1.05
-1.40
-2.09
-3.22
-4.72
-6.40
-8.04
-9.52
-10.83
-12.03
-13.19
-14.27
-15.12
-15.58
-15.49
-14.76
-13.37
-11.29
-8.54
-5.22
-1.52
2.23
5.66
8.50
10.59
11.95
12.67
12.88
12.64
11.97
10.85
9.34
7.50
5.45
3.34
1.33
-0.45
-1.87
-2.87
-3.45
-3.68
-3.67
-3.53
-3.36
-3.22
-3.18
-3.29
-3.59
-3.97
-4.30
-4.37
-4.04
-3.30
-2.26
-1.11
-0.00
1.02
1.98
2.95
3.97
5.02
6.00
6.77
7.23
7.34
7.18
6.85
6.51
6.26
6.12
6.05
5.99
5.88
5.67
5.30
4.72
3.90
2.88
1.80
0.85
0.21
-0.01
0.12
0.45
0.80
1.06
1.15
1.09
0.86
0.43
-0.22
-1.06
-1.96
-2.82
-3.55
-4.16
-4.75
-5.45
-6.33
-7.36
-8.42
-9.31
-9.90
-10.13
-10.03
-9.73
-9.36
-9.02
-8.72
-8.43
-7.98
-7.18
-5.84
-3.88
-1.38
1.39
4.03
6.18
7.62
8.28
8.27
7.69
6.65
5.23
3.59
2.02
0.85
0.33
0.46
0.90
1.16
0.82
-0.23
-1.76
-3.30
-4.35
-4.61
-4.06
-2.89
-1.46
-0.14
0.73
0.94
0.39
-0.86
-2.62
-4.62
-6.63
-8.53
-10.30
-11.95
-13.40
-14.45
-14.89
-14.53
-13.37
-11.53
-9.23
-6.59
-3.65
-0.42
2.94
6.12
8.65
10.20
10.71
10.49
10.04
9.78
9.83
10.02
10.00
9.56
8.74
7.80
7.06
6.70
6.70
6.81
6.74
6.32
5.55
4.57
3.61
2.83
2.37
2.25
2.37
2.57
2.69
2.62
2.38
2.00
1.55
1.14
0.80
0.50
0.14
-0.39
-1.12
-2.05
-3.17
-4.49
-5.78
-6.86
-7.69
-8.46
-9.40
-10.65
-12.18
-13.77
-15.16
-15.59
-14.49
-11.76
-7.88
-3.64
0.24
3.27
5.27
6.32
7.51
9.93
14.11
19.66
25.66
31.22
35.80
39.35
42.18
45.83
51.64
60.05
70.35
81.34
92.04
101.97
111.10
113.06
103.63
82.64
54.75
26.20
1.44
-17.83
-31.77
-41.45
-48.15
-52.03
-53.16
-51.67
-48.75
-45.65
-43.25
-41.91
-41.66
-42.36
-43.04
-42.81
-41.34
-39.08
-36.83
-35.22
-34.53
-34.76
-35.70
-36.49
-36.34
-34.87
-32.36
-29.47
-26.84
-24.92
-23.77
-23.14
-22.37
-20.85
-18.34
-15.12
-11.71
-8.61
-6.14
-4.35
-3.14
-2.21
-1.30
-0.24
0.97
2.20
3.24
3.84
3.77
2.99
1.69
0.23
-0.94
-1.50
-1.37
-0.78
-0.04
0.53
0.81
0.84
0.75
0.60
0.30
-0.29
-1.29
-2.60
-3.90
-4.70
-4.51
-3.08
-0.42
3.15
7.11
10.87
13.87
15.68
16.12
15.33
13.82
12.33
11.61
12.14
13.91
16.46
19.05
21.05
22.14
22.34
21.92
21.17
20.21
19.06
17.66
16.07
14.44
12.99
11.85
11.00
10.26
9.43
8.40
7.28
6.35
5.94
6.27
7.34
8.92
10.67
12.19
13.24
13.67
13.44
12.55
11.02
8.96
6.56
4.04
1.62
-0.56
-2.47
-4.14
-5.65
-7.05
-8.34
-9.53
-10.62
-11.64
-12.59
-13.38
-13.87
-14.03
-13.91
-13.59
-13.26
-13.09
-13.20
-13.63
-14.25
-14.94
-15.82
-17.06
-18.79
-21.05
-23.84
-27.04
-30.45
-33.82
-36.91
-39.85
-42.71
-45.41
-47.77
-49.64
-50.95
-51.70
-51.81
-51.11
-49.73
-47.56
-44.33
-39.71
-33.59
-26.20
-18.01
-9.46
1.36
14.65
28.96
41.91
51.68
57.66
60.25
60.22
58.51
55.98
52.91
49.61
46.38
43.57
41.52
40.34
39.72
39.20
38.29
36.39
33.40
29.66
25.77
22.22
19.67
18.12
17.22
16.48
15.39
13.81
11.85
9.90
8.42
7.69
7.61
7.97
8.46
8.74
8.60
7.61
5.68
3.17
0.69
-1.27
-2.36
-2.57
-2.21
-1.76
-2.30
-4.24
-7.04
-9.70
-11.55
-12.50
-13.18
-14.31
-16.33
-20.31
-26.25
-33.12
-39.72
-45.69
-51.45
-58.09
-66.46
-76.85
-90.32
-106.45
-122.93
-136.43
-144.09
-144.08
-136.50
-122.93
-97.31
-61.13
-22.32
10.38
33.33
46.36
54.24
59.83
64.16
67.48
68.85
68.04
66.01
64.12
62.72
61.44
59.05
54.51
47.43
37.27
24.82
12.00
1.02
-7.16
-12.58
-14.64
-13.35
-9.61
-5.59
-2.88
-2.79
-4.16
-5.96
-7.44
-8.29
-7.90
-6.06
-3.09
0.60
4.66
8.90
12.86
16.23
18.81
20.43
21.00
20.55
19.32
17.76
16.46
15.76
15.79
16.53
17.63
18.61
19.10
18.89
17.95
16.50
14.69
12.68
10.60
8.50
6.37
4.29
2.33
0.53
-1.11
-2.71
-4.35
-6.03
-7.66
-9.13
-10.29
-11.05
-11.41
-11.39
-11.04
-10.38
-9.49
-8.49
-7.55
-6.85
-6.51
-6.56
-6.92
-7.35
-7.56
-7.42
-6.99
-6.50
-6.17
-6.15
-6.45
-6.95
-7.21
-6.81
-5.65
-3.98
-2.22
-0.72
0.38
1.12
1.62
2.37
3.76
5.80
8.09
10.14
11.66
12.67
13.40
14.15
15.71
18.83
23.74
30.08
37.18
44.42
51.39
57.83
60.41
56.83
47.34
34.71
22.08
11.24
2.46
-4.74
-10.87
-15.79
-19.31
-20.96
-20.58
-18.62
-15.83
-12.88
-10.16
-7.78
-6.02
-4.78
-3.93
-3.64
-4.30
-6.18
-9.11
-12.51
-15.65
-17.93
-18.81
-18.09
-16.10
-13.50
-11.07
-9.28
-8.30
-8.05
-8.36
-9.01
-9.89
-11.10
-12.86
-15.31
-18.29
-21.38
-24.08
-25.96
-26.82
-26.68
-25.78
-24.32
-22.45
-20.09
-17.12
-13.48
-9.21
-4.50
0.45
5.44
10.29
14.78
18.63
21.55
23.29
23.80
23.27
22.08
20.66
19.32
18.15
17.04
15.81
14.35
12.72
11.17
9.99
9.44
9.60
10.42
11.68
13.10
14.34
15.09
15.05
14.04
12.05
9.34
6.33
3.59
1.60
0.61
0.57
1.17
2.01
2.75
3.25
3.54
3.76
4.05
4.49
5.01
5.55
5.94
6.05
5.69
4.71
3.11
1.08
-0.99
-2.60
-3.36
-3.13
-2.10
-0.72
0.49
1.12
0.90
-0.19
-2.00
-4.26
-6.60
-8.66
-10.18
-11.08
-11.44
-11.48
-11.40
-11.28
-11.09
-10.74
-10.17
-9.42
-8.60
-7.80
-7.08
-6.43
-5.81
-5.21
-4.65
-4.19
-3.89
-3.73
-3.67
-3.61
-3.44
-3.12
-2.71
-2.27
-1.90
-1.68
-1.60
-1.62
-1.73
-1.91
-2.21
-2.67
-3.29
-4.05
-4.89
-5.72
-6.49
-7.20
-7.85
-8.41
-8.78
-8.81
-8.30
-7.16
-5.44
-3.36
-1.24
0.60
1.94
2.73
3.08
3.19
3.24
3.32
3.50
3.76
4.08
4.40
4.67
4.86
5.02
5.23
5.64
6.38
7.51
8.90
10.29
11.37
11.93
12.03
11.80
11.57
11.84
13.03
15.28
18.32
21.60
24.46
26.36
26.68
25.14
22.05
18.21
14.57
11.92
10.64
10.68
11.49
11.67
9.93
5.77
-0.35
-7.44
-14.50
-20.87
-26.31
-30.90
-35.62
-41.21
-47.72
-54.48
-60.75
-66.16
-70.73
-74.64
-73.63
-65.38
-51.14
-35.02
-20.85
-10.23
-2.87
2.33
6.52
10.46
13.60
15.13
14.66
12.49
9.34
6.11
3.64
2.32
2.57
3.86
5.41
6.71
7.73
8.67
9.72
10.97
12.40
13.92
14.99
15.17
14.49
13.47
12.74
12.79
13.60
14.90
16.26
17.05
16.89
15.79
14.22
12.77
11.94
11.89
12.46
13.24
13.70
13.42
12.29
10.46
8.24
5.87
3.48
1.08
-1.33
-3.76
-6.13
-8.29
-10.14
-11.60
-12.65
-13.32
-13.60
-13.44
-12.77
-11.59
-9.98
-8.14
-6.35
-4.84
-3.69
-2.86
-2.21
-1.58
-0.94
-0.33
0.18
0.56
0.87
1.24
1.78
2.55
3.51
4.59
5.67
6.65
7.48
8.13
8.61
8.96
9.27
9.59
10.00
10.49
11.00
11.43
11.61
11.34
10.48
8.99
6.95
4.56
2.08
-0.23
-2.21
-3.71
-4.60
-4.82
-4.36
-3.35
-2.08
-0.92
-0.11
0.30
0.60
1.21
2.50
4.54
7.04
9.38
10.90
11.14
9.95
7.52
4.15
0.21
-4.03
-8.33
-12.44
-16.08
-18.95
-20.83
-21.63
-21.41
-20.31
-18.51
-16.19
-13.56
-10.91
-8.58
-6.94
-6.28
-6.60
-7.59
-8.60
-8.84
-7.64
-4.74
-0.41
4.57
9.13
12.21
13.09
11.58
8.05
3.37
-1.43
-5.39
-7.95
-9.02
-8.94
-8.30
-7.61
-7.13
-6.83
-6.56
-6.17
-5.69
-5.27
-5.11
-5.22
-5.42
-5.37
-4.76
-3.51
-1.81
-0.12
1.09
1.52
1.20
0.39
-0.51
-1.18
-1.48
-1.43
-1.15
-0.73
-0.18
0.50
1.32
2.21
3.04
3.71
4.15
4.37
4.43
4.37
4.21
3.97
3.65
3.30
2.96
2.69
2.49
2.34
2.24
2.22
2.28
2.41
2.52
2.46
2.09
1.36
0.39
-0.56
-1.13
-1.03
-0.07
1.71
4.08
6.65
9.03
10.86
11.96
12.32
12.10
11.48
10.62
9.52
8.14
6.44
4.52
2.57
0.85
-0.47
-1.33
-1.82
-2.03
-2.06
-1.93
-1.67
-1.35
-1.05
-0.88
-0.89
-1.06
-1.33
-1.68
-2.10
-2.61
-3.23
-3.91
-4.56
-5.09
-5.45
-5.65
-5.78
-5.97
-6.34
-6.97
-7.91
-9.11
-10.50
-11.99
-13.50
-14.89
-15.97
-16.52
-16.31
-15.21
-13.33
-10.93
-8.41
-6.16
-4.45
-3.36
-2.82
-2.64
-2.60
-2.52
-2.25
-1.73
-0.95
0.04
1.20
2.45
3.76
5.12
6.45
7.65
8.59
9.15
9.30
9.14
8.82
8.53
8.36
8.31
8.34
8.38
8.43
8.53
8.68
8.82
8.80
8.48
7.78
6.80
5.69
4.67
3.89
3.42
3.29
3.47
3.95
4.66
5.46
6.14
6.46
6.30
5.73
4.97
4.31
4.04
4.29
5.04
6.14
7.41
8.64
9.72
10.52
10.93
10.85
10.22
9.13
7.78
6.44
5.38
4.74
4.50
4.52
4.60
4.59
4.45
4.20
3.90
3.59
3.27
2.96
2.69
2.49
2.45
2.56
2.78
2.98
3.01
2.74
2.16
1.39
0.61
0.00
-0.38
-0.59
-0.80
-1.11
-1.54
-1.98
-2.30
-2.38
-2.28
-2.14
-2.11
-2.28
-2.59
-2.95
-3.25
-3.48
-3.71
-4.02
-4.43
-4.80
-4.93
-4.63
-3.84
-2.67
-1.37
-0.18
0.73
1.36
1.80
2.18
2.58
2.98
3.24
3.25
2.92
2.32
1.60
0.99
0.69
0.75
1.10
1.58
2.03
2.40
2.71
3.02
3.32
3.50
3.44
3.06
2.43
1.72
1.14
0.77
0.57
0.42
0.22
-0.05
-0.30
-0.46
-0.52
-0.54
-0.62
-0.83
-1.14
-1.46
-1.72
-1.90
-2.05
-2.26
-2.57
-2.94
-3.21
-3.20
-2.78
-2.02
-1.08
-0.23
0.34
0.57
0.55
0.43
0.35
0.33
0.31
0.21
0.03
-0.18
-0.31
-0.28
-0.10
0.14
0.36
0.55
0.74
1.00
1.34
1.68
1.91
1.94
1.78
1.53
1.29
1.13
1.06
1.03
1.02
0.99
0.93
0.85
0.69
0.43
0.07
-0.32
-0.65
-0.84
-0.86
-0.76
-0.62
-0.55
-0.64
-0.95
-1.42
-1.96
-2.38
-2.48
-2.09
-1.15
0.26
1.95
3.68
5.24
6.50
7.44
8.08
8.43
8.49
8.22
7.60
6.72
5.72
4.82
4.20
3.89
3.83
3.89
3.97
4.06
4.22
4.47
4.77
4.98
4.91
4.42
3.42
1.96
0.18
-1.75
-3.64
-5.32
-6.68
-7.67
-8.28
-8.61
-8.76
-8.82
-8.85
-8.86
-8.83
-8.70
-8.47
-8.13
-7.75
-7.43
-7.27
-7.33
-7.60
-7.99
-8.39
-8.70
-8.95
-9.19
-9.52
-9.96
-10.41
-10.72
-10.72
-10.34
-9.71
-9.04
-8.57
-8.41
-8.52
-8.77
-9.01
-9.13
-9.15
-9.07
-8.86
-8.43
-7.63
-6.38
-4.72
-2.81
-0.85
0.98
2.61
4.06
5.37
6.52
7.46
8.12
8.46
8.57
8.57
8.65
8.91
9.30
9.67
9.83
9.64
9.08
8.29
7.48
6.88
6.62
6.73
7.10
7.59
8.03
8.31
8.33
8.00
7.21
5.88
4.03
1.81
-0.49
-2.51
-3.94
-4.60
-4.53
-3.98
-3.24
-2.62
-2.32
-2.46
-3.08
-4.17
-5.72
-7.68
-9.95
-12.31
-14.51
-16.33
-17.62
-18.41
-18.85
-19.11
-19.23
-19.06
-18.29
-16.61
-13.87
-10.24
-6.14
-2.08
1.50
4.40
6.63
8.35
9.71
10.76
11.51
11.93
12.10
12.15
12.25
12.51
12.94
13.47
13.95
14.28
14.35
14.09
13.44
12.36
10.92
9.34
7.95
7.12
7.03
7.58
8.32
8.62
7.93
6.08
3.37
0.51
-1.69
-2.56
-1.86
0.20
3.04
5.92
8.10
9.01
8.28
5.86
2.00
-2.79
-7.75
-12.12
-15.25
-16.75
-16.54
-14.82
-12.00
-8.62
-5.24
-2.35
-0.28
0.88
1.27
1.24
1.15
1.30
1.80
2.55
3.36
4.01
4.35
4.34
4.06
3.64
3.20
2.80
2.40
1.88
1.15
0.20
-0.92
-2.07
-3.18
-4.19
-5.15
-6.08
-6.92
-7.53
-7.73
-7.40
-6.56
-5.37
-4.09
-2.93
-2.02
-1.34
-0.81
-0.33
0.10
0.45
0.66
0.71
0.70
0.74
0.91
1.23
1.58
1.84
1.92
1.80
1.58
1.40
1.37
1.55
1.89
2.27
2.58
2.70
2.60
2.31
1.94
1.62
1.42
1.34
1.31
1.22
0.97
0.55
0.03
-0.53
-1.05
-1.49
-1.85
-2.16
-2.44
-2.76
-3.15
-3.66
-4.23
-4.77
-5.13
-5.24
-5.15
-5.06
-5.23
-5.80
-6.74
-7.80
-8.63
-8.96
-8.65
-7.71
-6.26
-4.37
-2.10
0.48
3.20
5.77
7.85
9.20
9.78
9.77
9.47
9.16
9.00
8.95
8.91
8.72
8.32
7.73
7.04
6.35
5.70
5.09
4.47
3.80
3.08
2.36
1.72
1.21
0.81
0.46
0.07
-0.39
-0.85
-1.25
-1.50
-1.60
-1.60
-1.58
-1.55
-1.47
-1.28
-0.94
-0.48
-0.00
0.36
0.55
0.55
0.41
0.15
-0.21
-0.71
-1.35
-2.09
-2.86
-3.54
-4.04
-4.27
-4.21
-3.81
-3.05
-1.95
-0.60
0.82
2.05
2.88
3.21
3.07
2.60
2.03
1.54
1.24
1.17
1.28
1.49
1.72
1.90
2.01
2.05
2.04
2.00
1.93
1.84
1.75
1.70
1.72
1.79
1.88
1.93
1.91
1.84
1.75
1.66
1.52
1.28
0.90
0.41
-0.13
-0.58
-0.88
-1.02
-1.06
-1.06
-1.08
-1.13
-1.18
-1.25
-1.37
-1.59
-1.91
-2.33
-2.80
-3.30
-3.80
-4.25
-4.59
-4.74
-4.63
-4.19
-3.48
-2.59
-1.68
-0.87
-0.21
0.30
0.71
1.05
1.32
1.46
1.43
1.24
0.98
0.78
0.74
0.91
1.28
1.73
2.19
2.59
2.89
3.10
3.20
3.16
3.00
2.74
2.44
2.16
1.92
1.74
1.60
1.50
1.45
1.45
1.46
1.41
1.25
0.96
0.63
0.36
0.22
0.18
0.16
0.03
-0.25
-0.65
-1.08
-1.41
-1.62
-1.74
-1.88
-2.10
-2.47
-2.95
-3.51
-4.09
-4.61
-5.01
-5.17
-5.02
-4.44
-3.41
-1.95
-0.15
1.85
3.92
5.96
7.92
9.79
11.44
12.59
12.80
11.56
8.59
4.00
-1.63
-7.30
-12.02
-15.09
-16.33
-16.01
-14.65
-12.72
-10.49
-8.13
-5.77
-3.68
-2.19
-1.61
-2.03
-3.25
-4.85
-6.37
-7.40
-7.76
-7.45
-6.60
-5.45
-4.19
-2.95
-1.81
-0.74
0.29
1.31
2.29
3.14
3.76
4.07
4.11
3.96
3.74
3.52
3.35
3.18
2.98
2.74
2.52
2.39
2.42
2.62
2.96
3.35
3.73
4.06
4.33
4.52
4.60
4.50
4.17
3.61
2.89
2.14
1.57
1.28
1.30
1.54
1.85
2.07
2.09
1.91
1.57
1.16
0.73
0.33
0.01
-0.20
-0.27
-0.15
0.15
0.60
1.08
1.43
1.41
0.85
-0.27
-1.77
-3.29
-4.43
-4.94
-4.77
-4.18
-3.52
-3.13
-3.17
-3.68
-4.53
-5.57
-6.61
-7.43
-7.81
-7.58
-6.67
-5.22
-3.47
-1.70
-0.11
1.26
2.47
3.62
4.70
5.60
6.15
6.24
5.87
5.15
4.27
3.40
2.59
1.80
0.99
0.15
-0.64
-1.19
-1.36
-1.08
-0.49
0.18
0.70
0.93
0.90
0.73
0.58
0.51
0.50
0.49
0.43
0.39
0.48
0.77
1.25
1.77
2.13
2.18
1.90
1.40
0.90
0.56
0.41
0.31
0.09
-0.40
-1.18
-2.16
-3.19
-4.17
-5.04
-5.83
-6.50
-6.89
-6.80
-6.02
-4.52
-2.52
-0.47
1.14
2.00
2.12
1.76
1.30
1.03
1.01
1.15
1.30
1.41
1.59
1.95
2.59
3.43
4.33
5.14
5.82
6.45
7.16
7.98
8.82
9.48
9.71
9.33
8.31
6.75
4.87
2.89
1.02
-0.65
-2.07
-3.26
-4.27
-5.16
-5.96
-6.72
-7.43
-8.04
-8.49
-8.76
-8.88
-8.98
-9.18
-9.63
-10.34
-11.28
-12.31
-13.31
-14.15
-14.75
-15.05
-15.01
-14.64
-13.99
-13.18
-12.36
-11.67
-11.15
-10.75
-10.29
-9.61
-8.58
-7.19
-5.53
-3.71
-1.79
0.21
2.33
4.56
6.80
8.86
10.51
11.54
11.84
11.45
10.57
9.48
8.48
7.74
7.29
7.00
6.68
6.22
5.65
5.12
4.78
4.72
4.90
5.18
5.46
5.72
6.04
6.51
7.14
7.84
8.42
8.65
8.38
7.58
6.34
4.83
3.23
1.66
0.24
-0.93
-1.77
-2.19
-2.21
-1.89
-1.41
-0.97
-0.69
-0.60
-0.62
-0.61
-0.47
-0.12
0.42
1.13
1.96
2.87
3.79
4.62
5.26
5.58
5.56
5.26
4.80
4.34
4.00
3.83
3.77
3.71
3.53
3.13
2.45
1.45
0.12
-1.54
-3.47
-5.60
-7.79
-9.93
-11.88
-13.55
-14.83
-15.60
-15.63
-14.66
-12.47
-8.99
-4.41
0.78
5.92
10.33
13.52
15.29
15.77
15.28
14.19
12.82
11.34
9.78
8.07
6.05
3.52
0.35
-3.42
-7.49
-11.32
-14.26
-15.71
-15.38
-13.35
-10.03
-6.07
-2.10
1.40
4.13
6.01
7.06
7.39
7.09
6.23
4.85
2.98
0.71
-1.79
-4.26
-6.42
-8.04
-8.98
-9.26
-9.01
-8.38
-7.52
-6.51
-5.37
-4.14
-2.90
-1.74
-0.80
-0.17
0.18
0.35
0.46
0.63
0.86
1.11
1.29
1.39
1.46
1.59
1.79
1.97
1.99
1.67
0.98
0.03
-0.92
-1.59
-1.82
-1.59
-1.06
-0.48
-0.06
0.09
-0.01
-0.22
-0.37
-0.28
0.11
0.78
1.63
2.49
3.21
3.68
3.85
3.75
3.44
3.01
2.50
2.00
1.57
1.27
1.13
1.13
1.15
1.09
0.85
0.41
-0.12
-0.61
-0.92
-1.00
-0.90
-0.76
-0.69
-0.81
-1.17
-1.74
-2.44
-3.15
-3.70
-3.93
-3.73
-3.03
-1.92
-0.56
0.77
1.84
2.47
2.64
2.46
2.15
1.93
1.92
2.18
2.64
3.21
3.81
4.41
4.98
5.49
5.87
6.00
5.83
5.39
4.79
4.20
3.77
3.54
3.48
3.46
3.42
3.32
3.23
3.18
3.22
3.30
3.34
3.28
3.10
2.85
2.56
2.25
1.91
1.54
1.13
0.68
0.21
-0.26
-0.72
-1.17
-1.61
-2.03
-2.41
-2.77
-3.10
-3.40
-3.66
-3.85
-3.96
-3.99
-3.96
-3.90
-3.90
-3.99
-4.20
-4.53
-4.93
-5.33
-5.64
-5.78
-5.70
-5.35
-4.74
-3.89
-2.84
-1.68
-0.49
0.61
1.55
2.26
2.72
2.91
2.83
2.52
2.04
1.47
0.92
0.50
0.29
0.33
0.59
0.99
1.44
1.80
1.99
2.00
1.85
1.66
1.48
1.34
1.21
1.01
0.73
0.41
0.15
0.05
0.14
0.36
0.57
0.67
0.60
0.41
0.18
-0.02
-0.16
-0.27
-0.37
-0.48
-0.60
-0.69
-0.73
-0.74
-0.75
-0.80
-0.90
-1.05
-1.22
-1.40
-1.58
-1.76
-1.93
-2.02
-1.94
-1.59
-0.92
0.01
1.05
1.98
2.63
2.92
2.87
2.62
2.30
2.00
1.72
1.45
1.18
0.98
0.93
1.10
1.50
2.06
2.66
3.17
3.50
3.65
3.67
3.63
3.60
3.56
3.47
3.25
2.84
2.25
1.52
0.76
-0.00
-0.74
-1.49
-2.32
-3.20
-4.08
-4.87
-5.48
-5.93
-6.26
-6.54
-6.80
-6.97
-7.02
-6.92
-6.76
-6.68
-6.80
-7.15
-7.65
-8.10
-8.28
-8.03
-7.31
-6.15
-4.71
-3.14
-1.65
-0.38
0.56
1.14
1.41
1.45
1.37
1.26
1.19
1.19
1.30
1.52
1.83
2.16
2.46
2.70
2.87
2.99
3.08
3.15
3.19
3.19
3.12
2.96
2.72
2.39
2.01
1.61
1.24
0.97
0.84
0.85
0.94
1.04
1.10
1.10
1.05
0.99
0.92
0.81
0.60
0.26
-0.22
-0.76
-1.29
-1.72
-2.05
-2.31
-2.56
-2.86
-3.18
-3.43
-3.44
-3.12
-2.44
-1.46
-0.35
0.77
1.83
2.86
3.92
5.06
6.26
7.38
8.26
8.77
8.87
8.62
8.14
7.56
6.97
6.41
5.86
5.31
4.73
4.10
3.37
2.50
1.48
0.30
-0.96
-2.22
-3.34
-4.23
-4.90
-5.43
-5.90
-6.42
-7.00
-7.59
-8.11
-8.47
-8.59
-8.43
-8.02
-7.44
-6.82
-6.28
-5.91
-5.75
-5.74
-5.80
-5.81
-5.72
-5.51
-5.22
-4.89
-4.57
-4.31
-4.11
-3.93
-3.72
-3.43
-3.01
-2.44
-1.76
-1.02
-0.28
0.40
0.99
1.43
1.73
1.90
1.97
1.95
1.85
1.64
1.33
0.97
0.65
0.50
0.55
0.80
1.14
1.44
1.66
1.80
1.93
2.09
2.29
2.46
2.54
2.48
2.30
2.03
1.75
1.46
1.19
0.92
0.64
0.34
0.04
-0.26
-0.56
-0.83
-1.05
-1.18
-1.21
-1.13
-1.00
-0.86
-0.83
-0.97
-1.35
-1.94
-2.65
-3.32
-3.78
-3.92
-3.72
-3.22
-2.53
-1.74
-0.95
-0.20
0.49
1.12
1.67
2.12
2.42
2.54
2.46
2.24
1.98
1.80
1.74
1.78
1.82
1.76
1.57
1.31
1.13
1.18
1.49
2.00
2.56
3.04
3.32
3.38
3.21
2.86
2.40
1.93
1.60
1.50
1.65
1.93
2.14
2.07
1.62
0.87
0.09
-0.44
-0.50
-0.10
0.51
0.97
0.86
-0.03
-1.65
-3.68
-5.61
-6.93
-7.34
-6.92
-6.09
-5.50
-5.81
-7.45
-10.47
-14.41
-18.38
-21.21
-21.76
-19.28
-13.70
-5.78
3.10
11.32
17.57
21.21
22.30
21.49
19.55
17.17
14.74
12.45
10.34
8.45
6.77
5.29
3.94
2.69
1.59
0.73
0.24
0.19
0.54
1.17
1.87
2.47
2.83
2.84
2.46
1.70
0.70
-0.34
-1.18
-1.65
-1.75
-1.63
-1.53
-1.69
-2.20
-3.01
-3.94
-4.79
-5.41
-5.71
-5.67
-5.32
-4.73
-4.00
-3.21
-2.46
-1.79
-1.23
-0.78
-0.43
-0.19
-0.08
-0.10
-0.27
-0.61
-1.11
-1.75
-2.49
-3.21
-3.80
-4.12
-4.09
-3.68
-2.93
-1.90
-0.68
0.63
1.93
3.12
4.14
4.96
5.60
6.07
6.38
6.49
6.34
5.95
5.36
4.72
4.18
3.83
3.62
3.45
3.16
2.69
2.06
1.41
0.84
0.43
0.15
-0.09
-0.36
-0.68
-1.04
-1.48
-2.07
-2.89
-3.96
-5.19
-6.34
-7.13
-7.34
-6.95
-6.12
-5.13
-4.21
-3.43
-2.67
-1.74
-0.47
1.17
3.04
4.88
6.39
7.38
7.80
7.76
7.45
7.08
6.77
6.53
6.33
6.10
5.81
5.46
5.06
4.56
3.85
2.79
1.30
-0.54
-2.52
-4.29
-5.52
-5.97
-5.58
-4.45
-2.81
-0.94
0.87
2.40
3.50
4.11
4.25
4.01
3.55
3.01
2.50
2.07
1.68
1.19
0.44
-0.70
-2.30
-4.28
-6.46
-8.53
-10.15
-10.99
-10.86
-9.68
-7.57
-4.80
-1.71
1.29
3.87
5.77
6.89
7.30
7.15
6.66
6.01
5.30
4.55
3.72
2.79
1.83
0.94
0.25
-0.19
-0.41
-0.52
-0.64
-0.80
-0.94
-0.93
-0.66
-0.12
0.64
1.46
2.19
2.73
3.04
3.11
2.98
2.67
2.22
1.68
1.12
0.59
0.12
-0.24
-0.45
-0.47
-0.30
0.01
0.33
0.53
0.50
0.24
-0.17
-0.58
-0.86
-0.92
-0.78
-0.48
-0.12
0.14
0.14
-0.36
-1.55
-3.48
-6.02
-8.79
-11.29
-13.04
-13.73
-13.33
-12.09
-10.39
-8.63
-7.14
-6.09
-5.50
-5.23
-5.07
-4.77
-4.16
-3.14
-1.75
-0.11
1.66
3.45
5.19
6.85
8.38
9.73
10.84
11.64
12.14
12.35
12.31
12.10
11.78
11.44
11.11
10.79
10.43
9.95
9.31
8.47
7.43
6.20
4.79
3.24
1.65
0.16
-1.07
-1.90
-2.36
-2.63
-2.97
-3.63
-4.71
-6.11
-7.58
-8.86
-9.76
-10.25
-10.39
-10.28
-10.01
-9.64
-9.24
-8.86
-8.60
-8.51
-8.59
-8.74
-8.79
-8.59
-8.07
-7.25
-6.23
-5.14
-4.08
-3.10
-2.24
-1.52
-0.96
-0.58
-0.34
-0.18
0.02
0.40
1.04
1.93
2.98
4.07
5.10
6.03
6.91
7.75
8.51
9.07
9.28
9.03
8.38
7.53
6.74
6.18
5.87
5.70
5.48
5.13
4.66
4.20
3.85
3.60
3.35
2.90
2.13
1.03
-0.26
-1.52
-2.52
-3.12
-3.31
-3.18
-2.86
-2.50
-2.22
-2.09
-2.14
-2.35
-2.68
-3.05
-3.37
-3.55
-3.57
-3.41
-3.15
-2.86
-2.57
-2.32
-2.04
-1.69
-1.22
-0.65
-0.06
0.47
0.85
1.08
1.19
1.22
1.20
1.13
1.00
0.82
0.63
0.50
0.46
0.49
0.55
0.52
0.37
0.08
-0.27
-0.55
-0.71
-0.72
-0.68
-0.68
-0.83
-1.15
-1.62
-2.18
-2.74
-3.25
-3.66
-3.97
-4.19
-4.31
-4.34
-4.26
-4.06
-3.75
-3.36
-2.94
-2.52
-2.11
-1.67
-1.18
-0.65
-0.17
0.18
0.30
0.22
-0.02
-0.31
-0.57
-0.76
-0.84
-0.80
-0.61
-0.25
0.21
0.65
0.92
0.92
0.67
0.27
-0.12
-0.33
-0.28
0.02
0.48
0.95
1.32
1.46
1.36
1.09
0.77
0.55
0.52
0.67
0.91
1.08
1.08
0.87
0.47
-0.06
-0.62
-1.16
-1.60
-1.91
-2.09
-2.17
-2.19
-2.26
-2.42
-2.69
-3.02
-3.29
-3.41
-3.30
-2.91
-2.28
-1.48
-0.63
0.15
0.74
1.10
1.24
1.25
1.20
1.17
1.19
1.22
1.25
1.23
1.18
1.13
1.15
1.30
1.59
2.02
2.51
2.99
3.39
3.67
3.82
3.85
3.76
3.52
3.17
2.71
2.20
1.72
1.31
0.99
0.71
0.42
0.06
-0.40
-0.98
-1.64
-2.34
-2.97
-3.46
-3.74
-3.82
-3.78
-3.79
-3.98
-4.43
-5.09
-5.82
-6.41
-6.65
-6.42
-5.70
-4.58
-3.22
-1.80
-0.48
0.67
1.60
2.29
2.72
2.88
2.80
2.56
2.30
2.12
2.07
2.11
2.19
2.22
2.20
2.19
2.27
2.48
2.83
3.23
3.59
3.84
3.94
3.89
3.74
3.50
3.23
2.89
2.51
2.05
1.54
1.01
0.51
0.05
-0.36
-0.73
-1.09
-1.38
-1.59
-1.67
-1.65
-1.65
-1.80
-2.23
-2.99
-3.98
-4.98
-5.73
-5.97
-5.61
-4.69
-3.43
-2.10
-0.93
-0.02
0.65
1.19
1.67
2.10
2.39
2.46
2.30
1.95
1.51
1.06
0.65
0.28
-0.01
-0.16
-0.14
0.05
0.29
0.46
0.40
0.10
-0.40
-0.99
-1.58
-2.16
-2.79
-3.52
-4.37
-5.29
-6.17
-6.93
-7.54
-8.02
-8.43
-8.84
-9.24
-9.61
-9.85
-9.82
-9.40
-8.44
-6.78
-4.37
-1.24
2.37
6.07
9.38
11.87
13.34
13.88
13.84
13.69
13.82
14.48
15.69
17.35
19.32
21.47
23.68
25.86
27.80
29.27
30.05
30.03
29.29
28.06
26.64
25.27
24.11
23.14
22.34
21.65
21.09
20.64
20.28
19.91
19.41
18.66
17.57
16.10
14.22
11.91
9.19
6.09
2.74
-0.72
-4.11
-7.22
-9.89
-11.94
-13.30
-14.01
-14.27
-14.40
-14.70
-15.36
-16.32
-17.34
-18.12
-18.49
-18.47
-18.29
-18.22
-18.42
-18.85
-19.33
-19.63
-19.58
-19.19
-18.57
-17.85
-17.10
-16.32
-15.44
-14.40
-13.23
-12.00
-10.84
-9.84
-9.05
-8.42
-7.86
-7.29
-6.64
-5.93
-5.21
-4.56
-4.02
-3.60
-3.29
-3.02
-2.74
-2.43
-2.09
-1.75
-1.44
-1.20
-1.03
-0.91
-0.82
-0.72
-0.62
-0.50
-0.38
-0.27
-0.19
-0.13
-0.10
-0.07
-0.04
-0.02
0.01
0.04
0.07
0.08
0.09
0.10
0.10
0.10
0.10
0.11
0.11
0.10
0.10
0.10
0.10
0.10
0.10
0.10
0.10
0.10
0.10
0.10
0.10
0.10
0.10
0.10
0.10
0.10
0.10
0.10
0.10
0.09
0.09
0.09
0.09
0.09
0.09
0.09
0.09
0.09
0.09
0.09
0.09
0.09
0.09
0.09
0.09
0.09
0.09
0.09
0.09
0.09
0.09
0.09
0.09
0.09
0.09
0.09
0.08
0.08
0.08
0.08
0.08
0.08
0.08
0.08
0.08
0.08
0.08
0.08
0.08
0.08
0.08
0.08
0.08
0.08
0.08
0.08
0.08
0.08
0.08
0.08
0.08
0.08
0.08
0.08
0.08
0.08
0.07
0.07
0.07
0.07
0.07
0.07
0.07
0.07
0.07
0.07
0.07
0.07
0.07
0.07
0.07
0.07
0.07
0.07
0.07
0.07
0.07
0.07
0.07
0.07
0.07
0.07
0.07
0.07
0.07
0.07
0.07
0.07
0.07
0.07
0.07
0.07
0.06
0.06
0.06
0.06
0.06
0.06
0.06
0.06
0.06
0.06
0.06
0.06
0.06
0.06
0.06
0.06
0.06
0.06
0.06
0.06
0.06
0.06
0.06
0.06
0.06
0.06
0.06
0.06
0.06
0.06
0.06
0.05
0.05
0.04
0.04
0.04
0.03
0.03
0.03
0.02
0.02
0.01
-0.00
-0.01
-0.02
-0.02
-0.02
-0.01
-0.01
-0.01
-0.01
-0.03
-0.06
-0.08
-0.11
-0.13
-0.15
-0.16
-0.17
-0.18
-0.20
-0.22
-0.24
-0.26
-0.28
-0.31
-0.35
-0.40
-0.48
-0.57
-0.68
-0.77
-0.85
-0.90
-0.92
-0.94
-0.99
-1.07
-1.22
-1.41
-1.63
-1.83
-1.99
-2.09
-2.14
-2.17
-2.24
-2.38
-2.61
-2.89
-3.14
-3.25
-3.10
-2.70
-2.11
-1.49
-0.97
-0.67
-0.58
-0.62
-0.64
-0.49
-0.07
0.63
1.45
2.12
2.28
1.63
0.03
-2.30
-4.88
-7.05
-8.21
-8.07
-6.66
-4.35
-1.68
0.74
2.31
2.54
1.09
-2.09
-6.68
-11.96
-16.97
-20.79
-22.77
-22.71
-20.80
-17.49
-13.34
-8.99
-5.14
-2.52
-1.71
-2.92
-5.71
-9.07
-11.68
-12.39
-10.64
-6.63
-1.11
4.87
10.30
14.40
16.75
17.24
16.11
13.98
11.70
10.20
10.12
11.59
14.27
17.62
21.17
24.67
28.07
31.25
34.06
36.07
36.73
35.73
33.28
30.02
26.72
23.85
21.35
18.87
15.82
11.64
6.24
0.17
-5.62
-10.06
-12.36
-12.11
-9.17
-3.94
2.55
9.05
14.40
17.83
19.15
18.74
15.96
11.45
7.13
5.18
6.66
10.89
15.84
19.19
19.23
15.62
9.76
4.26
0.67
-0.13
1.87
5.83
10.46
14.48
16.94
17.49
16.06
12.56
7.06
0.24
-6.80
-12.91
-17.31
-19.92
-21.35
-22.67
-24.99
-28.69
-33.25
-37.43
-39.89
-39.78
-37.07
-32.40
-26.81
-21.26
-16.24
-11.75
-7.65
-3.84
-0.47
2.11
3.63
3.93
3.02
1.05
-1.78
-5.34
-9.46
-13.90
-18.21
-21.87
-24.40
-25.62
-25.71
-25.13
-24.44
-23.94
-23.57
-22.88
-21.29
-18.32
-13.93
-8.55
-3.01
1.69
4.69
5.55
4.34
1.57
-2.04
-5.75
-9.02
-11.54
-13.20
-13.98
-13.90
-13.02
-11.47
-9.43
-7.12
-4.74
-2.44
-0.37
1.36
2.64
3.50
4.18
5.18
7.14
10.63
15.87
22.49
29.58
35.89
40.24
41.87
40.59
36.78
31.25
24.92
18.58
12.74
7.52
2.69
-2.20
-7.57
-13.39
-19.09
-23.60
-25.80
-25.03
-21.44
-15.95
-9.77
-3.85
1.35
5.76
9.34
11.74
12.39
10.92
7.63
3.74
1.07
1.36
5.53
13.25
23.01
32.60
39.77
42.93
41.58
36.34
28.69
20.42
13.10
7.57
3.91
1.56
-0.22
-2.02
-4.05
-6.17
-8.05
-9.34
-9.91
-9.91
-9.68
-9.64
-10.06
-10.97
-12.13
-13.19
-13.89
-14.11
-13.88
-13.33
-12.53
-11.57
-10.51
-9.46
-8.59
-8.05
-7.85
-7.87
-7.83
-7.39
-6.28
-4.44
-2.16
-0.11
0.77
-0.38
-3.96
-9.60
-16.12
-21.94
-25.61
-26.35
-24.25
-20.18
-15.30
-10.68
-6.99
-4.48
-3.06
-2.47
-2.38
-2.37
-1.96
-0.73
1.59
4.93
8.83
12.56
15.40
16.89
17.02
16.22
15.05
13.98
13.16
12.43
11.53
10.41
9.40
9.09
10.11
12.76
16.67
20.90
24.08
24.90
22.53
16.92
8.77
-0.58
-9.61
-16.98
-21.84
-23.93
-23.54
-21.34
-18.09
-14.52
-11.17
-8.32
-6.07
-4.33
-2.96
-1.81
-0.78
0.17
1.01
1.60
1.60
0.59
-1.77
-5.50
-10.04
-14.34
-17.08
-17.22
-14.42
-9.29
-3.19
2.33
6.02
7.40
6.77
4.96
2.91
1.31
0.49
0.48
1.12
2.24
3.70
5.34
6.94
8.22
8.89
8.80
8.01
6.76
5.43
4.36
3.71
3.49
3.54
3.67
3.72
3.58
3.21
2.60
1.75
0.68
-0.55
-1.82
-3.06
-4.32
-5.75
-7.57
-9.83
-12.31
-14.44
-15.50
-14.85
-12.22
-7.85
-2.41
3.27
8.39
12.44
15.17
16.61
16.95
16.51
15.63
14.63
13.73
12.95
12.17
11.16
9.75
7.93
5.86
3.84
2.16
0.98
0.31
0.02
-0.14
-0.37
-0.77
-1.30
-1.75
-1.86
-1.45
-0.52
0.69
1.79
2.37
2.22
1.37
0.15
-0.99
-1.60
-1.48
-0.69
0.41
1.25
1.15
-0.44
-3.72
-8.37
-13.55
-18.10
-20.90
-21.24
-19.08
-15.02
-10.08
-5.36
-1.74
0.22
0.35
-1.16
-3.86
-7.11
-10.12
-12.18
-12.82
-12.01
-10.05
-7.50
-4.88
-2.54
-0.54
1.23
2.91
4.55
6.09
7.38
8.28
8.73
8.72
8.31
7.55
6.53
5.33
4.06
2.81
1.60
0.38
-0.99
-2.66
-4.68
-6.98
-9.29
-11.21
-12.29
-12.24
-11.01
-8.87
-6.35
-4.06
-2.49
-1.84
-2.03
-2.71
-3.45
-3.79
-3.35
-1.92
0.39
3.13
5.55
6.89
6.68
5.06
2.77
0.78
-0.12
0.28
1.58
3.07
4.16
4.68
4.86
5.14
5.82
6.88
8.08
9.07
9.65
9.83
9.80
9.76
9.79
9.77
9.48
8.72
7.44
5.82
4.23
3.05
2.48
2.40
2.41
1.99
0.76
-1.28
-3.77
-6.11
-7.73
-8.34
-8.02
-7.11
-5.99
-4.96
-4.10
-3.38
-2.75
-2.20
-1.78
-1.51
-1.38
-1.30
-1.16
-0.92
-0.62
-0.34
-0.20
-0.24
-0.41
-0.63
-0.79
-0.89
-1.00
-1.23
-1.64
-2.22
-2.82
-3.21
-3.21
-2.74
-1.84
-0.68
0.56
1.77
2.86
3.80
4.57
5.13
5.42
5.46
5.28
5.00
4.72
4.52
4.37
4.22
4.01
3.75
3.53
3.45
3.54
3.75
3.93
3.95
3.78
3.47
3.20
3.09
3.19
3.43
3.64
3.71
3.57
3.27
2.87
2.45
2.08
1.77
1.53
1.33
1.14
0.90
0.55
0.12
-0.31
-0.58
-0.58
-0.27
0.27
0.87
1.37
1.71
1.95
2.25
2.80
3.77
5.19
6.95
8.83
10.47
11.56
11.92
11.61
10.97
10.52
10.80
12.18
14.66
17.90
21.35
24.41
26.68
28.01
28.51
28.39
27.87
27.05
25.95
24.49
22.56
20.04
16.76
12.61
7.48
1.53
-4.89
-11.19
-16.81
-21.43
-25.12
-28.26
-31.31
-34.48
-37.58
-40.11
-41.53
-41.54
-40.23
-38.00
-35.32
-32.55
-29.83
-27.20
-24.71
-22.51
-20.84
-19.89
-19.64
-19.82
-20.03
-19.80
-18.82
-17.04
-14.57
-11.67
-8.58
-5.42
-2.21
1.08
4.41
7.66
10.56
12.85
14.33
14.98
14.95
14.44
13.70
12.86
11.95
10.96
9.83
8.57
7.23
5.89
4.64
3.53
2.57
1.75
1.01
0.30
-0.40
-1.09
-1.70
-2.19
-2.56
-2.85
-3.16
-3.53
-3.94
-4.28
-4.45
-4.37
-4.06
-3.68
-3.39
-3.29
-3.40
-3.62
-3.84
-4.02
-4.21
-4.52
-5.00
-5.62
-6.23
-6.62
-6.61
-6.12
-5.21
-4.05
-2.80
-1.56
-0.37
0.79
1.92
2.95
3.78
4.29
4.46
4.35
4.06
3.73
3.42
3.11
2.78
2.40
2.04
1.81
1.82
2.12
2.67
3.32
3.90
4.24
4.24
3.91
3.31
2.56
1.78
1.08
0.52
0.14
-0.09
-0.21
-0.28
-0.34
-0.43
-0.54
-0.70
-0.92
-1.24
-1.68
-2.22
-2.76
-3.21
-3.48
-3.56
-3.55
-3.56
-3.70
-4.00
-4.38
-4.74
-4.95
-4.92
-4.60
-4.02
-3.21
-2.28
-1.29
-0.35
0.49
1.20
1.77
2.22
2.54
2.70
2.69
2.53
2.29
2.06
1.91
1.91
2.07
2.32
2.56
2.71
2.72
2.60
2.45
2.37
2.43
2.60
2.82
2.98
3.03
2.98
2.87
2.74
2.54
2.23
1.73
1.08
0.37
-0.26
-0.72
-1.01
-1.19
-1.34
-1.50
-1.68
-1.86
-2.04
-2.27
-2.58
-3.02
-3.56
-4.15
-4.72
-5.23
-5.65
-5.94
-6.05
-5.90
-5.44
-4.64
-3.57
-2.35
-1.12
-0.03
0.82
1.37
1.62
1.56
1.22
0.66
0.02
-0.57
-1.00
-1.23
-1.30
-1.30
-1.33
-1.42
-1.54
-1.66
-1.74
-1.80
-1.88
-1.99
-2.13
-2.27
-2.34
-2.29
-2.11
-1.78
-1.33
-0.79
-0.21
0.34
0.84
1.26
1.58
1.80
1.89
1.86
1.74
1.60
1.49
1.44
1.38
1.19
0.79
0.15
-0.63
-1.33
-1.71
-1.55
-0.76
0.68
2.66
5.05
7.64
10.24
12.62
14.63
16.15
17.14
17.65
17.77
17.58
17.14
16.50
15.70
14.78
13.82
12.91
12.13
11.47
10.88
10.24
9.41
8.31
6.96
5.40
3.78
2.22
0.85
-0.26
-1.07
-1.59
-1.85
-1.92
-1.88
-1.85
-1.95
-2.30
-2.98
-3.97
-5.11
-6.16
-6.86
-7.05
-6.82
-6.42
-6.26
-6.66
-7.74
-9.35
-11.15
-12.74
-13.84
-14.31
-14.21
-13.65
-12.82
-11.86
-10.92
-10.11
-9.48
-9.05
-8.78
-8.60
-8.42
-8.22
-7.99
-7.72
-7.39
-6.89
-6.11
-4.95
-3.36
-1.40
0.83
3.13
5.31
7.20
8.70
9.79
10.51
10.94
11.15
11.20
11.06
10.73
10.19
9.48
8.66
7.84
7.10
6.50
6.04
5.62
5.13
4.47
3.62
2.61
1.57
0.63
-0.09
-0.58
-0.83
-0.88
-0.73
-0.40
0.09
0.67
1.24
1.74
2.13
2.42
2.63
2.74
2.71
2.45
1.96
1.26
0.48
-0.22
-0.70
-0.88
-0.77
-0.44
0.00
0.50
1.01
1.53
2.07
2.57
2.93
3.03
2.80
2.26
1.56
0.90
0.43
0.23
0.20
0.23
0.20
0.06
-0.15
-0.39
-0.64
-0.92
-1.23
-1.58
-1.92
-2.24
-2.55
-2.86
-3.21
-3.52
-3.67
-3.53
-3.02
-2.17
-1.14
-0.14
0.68
1.23
1.53
1.63
1.60
1.47
1.27
1.02
0.76
0.52
0.38
0.37
0.50
0.76
1.08
1.37
1.58
1.69
1.70
1.67
1.62
1.55
1.45
1.32
1.17
1.00
0.82
0.60
0.30
-0.08
-0.49
-0.82
-0.99
-0.95
-0.83
-0.82
-1.11
-1.75
-2.62
-3.44
-3.94
-3.91
-3.36
-2.42
-1.30
-0.23
0.67
1.34
1.77
2.00
2.06
2.02
1.94
1.88
1.88
1.93
1.99
2.00
1.94
1.79
1.60
1.41
1.29
1.29
1.43
1.67
1.94
2.12
2.12
1.88
1.41
0.78
0.06
-0.63
-1.21
-1.61
-1.79
-1.77
-1.62
-1.45
-1.41
-1.57
-1.95
-2.47
-3.04
-3.57
-4.00
-4.26
-4.32
-4.13
-3.65
-2.91
-1.97
-0.97
-0.05
0.64
1.05
1.20
1.16
1.01
0.84
0.71
0.62
0.59
0.60
0.65
0.72
0.79
0.86
0.94
1.08
1.31
1.61
1.93
2.19
2.29
2.15
1.79
1.28
0.74
0.30
0.06
0.01
0.07
0.10
-0.03
-0.34
-0.76
-1.15
-1.43
-1.61
-1.78
-2.05
-2.47
-2.97
-3.39
-3.61
-3.60
-3.42
-3.13
-2.78
-2.33
-1.71
-0.89
0.07
1.00
1.71
2.05
2.04
1.81
1.55
1.43
1.46
1.55
1.53
1.31
0.92
0.50
0.25
0.28
0.55
0.90
1.19
1.30
1.24
1.09
0.91
0.74
0.57
0.37
0.13
-0.12
-0.34
-0.49
-0.56
-0.59
-0.62
-0.70
-0.85
-1.04
-1.25
-1.44
-1.60
-1.73
-1.87
-2.02
-2.17
-2.32
-2.48
-2.66
-2.87
-3.06
-3.13
-2.98
-2.56
-1.92
-1.17
-0.44
0.19
0.72
1.19
1.62
1.99
2.27
2.41
2.39
2.21
1.90
1.56
1.26
1.12
1.21
1.55
2.05
2.59
3.02
3.24
3.27
3.18
3.01
2.82
2.56
2.20
1.75
1.26
0.83
0.53
0.35
0.23
0.09
-0.14
-0.46
-0.78
-1.05
-1.21
-1.29
-1.36
-1.49
-1.75
-2.13
-2.57
-3.00
-3.34
-3.53
-3.57
-3.53
-3.44
-3.32
-3.13
-2.82
-2.36
-1.76
-1.12
-0.56
-0.15
0.11
0.25
0.32
0.31
0.19
-0.05
-0.35
-0.57
-0.59
-0.34
0.12
0.65
1.09
1.36
1.45
1.45
1.44
1.43
1.40
1.30
1.08
0.79
0.48
0.23
0.08
0.01
-0.05
-0.15
-0.32
-0.54
-0.77
-0.99
-1.21
-1.44
-1.72
-2.04
-2.37
-2.65
-2.85
-2.94
-2.95
-2.86
-2.68
-2.39
-1.99
-1.47
-0.87
-0.22
0.40
0.93
1.31
1.50
1.53
1.49
1.45
1.45
1.47
1.43
1.25
0.95
0.64
0.49
0.61
1.00
1.55
2.07
2.39
2.47
2.37
2.20
2.04
1.92
1.76
1.54
1.26
0.97
0.75
0.63
0.60
0.55
0.41
0.11
-0.32
-0.84
-1.36
-1.83
-2.24
-2.56
-2.77
-2.83
-2.74
-2.57
-2.42
-2.43
-2.71
-3.27
-4.01
-4.73
-5.22
-5.30
-4.89
-4.04
-2.87
-1.57
-0.33
0.71
1.46
1.88
2.00
1.89
1.63
1.33
1.04
0.83
0.74
0.78
0.91
1.09
1.26
1.38
1.47
1.59
1.83
2.23
2.76
3.28
3.60
3.60
3.25
2.64
1.98
1.44
1.17
1.17
1.34
1.51
1.55
1.37
0.98
0.47
-0.05
-0.50
-0.87
-1.20
-1.53
-1.84
-2.08
-2.15
-2.04
-1.79
-1.53
-1.43
-1.60
-2.08
-2.86
-3.85
-4.89
-5.82
-6.45
-6.59
-6.17
-5.20
-3.84
-2.31
-0.84
0.36
1.14
1.49
1.47
1.21
0.85
0.49
0.19
-0.03
-0.17
-0.21
-0.16
-0.03
0.13
0.26
0.32
0.30
0.27
0.27
0.34
0.46
0.61
0.78
0.93
1.04
1.00
0.72
0.12
-0.77
-1.80
-2.73
-3.37
-3.62
-3.56
-3.35
-3.21
-3.27
-3.54
-3.93
-4.31
-4.55
-4.61
-4.49
-4.23
-3.82
-3.25
-2.52
-1.68
-0.86
-0.19
0.23
0.43
0.50
0.58
0.73
0.89
0.98
0.91
0.73
0.56
0.54
0.72
1.05
1.37
1.57
1.61
1.57
1.56
1.66
1.89
2.18
2.48
2.76
3.06
3.43
3.90
4.43
4.92
5.25
5.33
5.15
4.76
4.32
3.94
3.69
3.58
3.54
3.52
3.46
3.35
3.20
3.02
2.86
2.72
2.62
2.54
2.40
2.13
1.72
1.22
0.75
0.44
0.31
0.30
0.27
0.12
-0.15
-0.43
-0.57
-0.45
-0.10
0.42
1.02
1.65
2.32
3.03
3.76
4.37
4.72
4.69
4.32
3.74
3.17
2.76
2.56
2.55
2.62
2.70
2.79
2.90
3.02
3.11
3.11
2.98
2.76
2.60
2.60
2.84
3.22
3.58
3.73
3.60
3.25
2.83
2.51
2.39
2.48
2.69
2.93
3.14
3.30
3.39
3.41
3.41
3.47
3.70
4.24
5.16
6.41
7.84
9.24
10.45
11.40
12.15
12.84
13.71
14.98
16.92
19.71
23.40
27.80
32.46
36.70
39.72
40.79
39.44
35.64
29.76
22.59
15.08
8.20
2.61
-1.39
-3.94
-5.48
-6.49
-7.39
-8.37
-9.43
-10.50
-11.56
-12.61
-13.75
-14.99
-16.22
-17.28
-18.06
-18.54
-18.89
-19.33
-20.07
-21.14
-22.41
-23.58
-24.37
-24.69
-24.60
-24.37
-24.25
-24.35
-24.56
-24.49
-23.62
-21.52
-18.12
-13.78
-9.25
-5.49
-3.43
-3.75
-6.51
-11.15
-16.74
-22.32
-27.16
-30.91
-33.60
-35.62
-37.63
-40.13
-43.25
-46.74
-50.00
-52.15
-52.27
-49.81
-44.95
-38.71
-32.19
-25.95
-19.81
-13.00
-4.55
6.19
19.12
33.87
47.94
58.13
62.65
62.14
58.44
53.19
47.23
40.87
34.36
28.08
23.03
19.86
18.90
19.81
21.60
23.19
23.69
22.66
19.95
15.90
11.11
6.12
1.40
-2.74
-6.06
-8.49
-10.17
-11.52
-12.95
-14.61
-16.24
-17.21
-16.73
-14.11
-9.10
-2.10
5.86
13.50
19.65
23.61
25.19
24.73
22.85
20.33
17.87
15.96
14.94
14.88
15.61
16.63
17.22
16.60
14.30
10.32
5.19
-0.26
-5.19
-8.98
-11.36
-12.24
-11.63
-9.64
-6.48
-2.62
1.33
4.80
7.49
9.41
10.71
11.37
11.05
9.11
4.96
-1.57
-9.95
-19.08
-27.49
-33.75
-36.83
-36.27
-32.32
-25.82
-18.01
-10.23
-3.64
0.98
3.24
3.09
0.73
-3.48
-8.95
-14.91
-20.51
-24.97
-27.77
-28.75
-28.04
-25.92
-22.66
-18.44
-13.40
-7.78
-1.98
3.50
8.14
11.59
13.78
14.98
15.62
16.10
16.68
17.37
18.02
18.41
18.41
17.95
17.05
15.71
13.85
11.43
8.48
5.20
1.92
-1.05
-3.50
-5.50
-7.28
-9.09
-11.09
-13.21
-15.23
-16.96
-18.33
-19.46
-20.57
-21.84
-23.32
-24.85
-26.19
-27.06
-27.19
-26.30
-24.15
-20.55
-15.50
-9.29
-2.47
4.23
10.14
14.86
18.32
20.74
22.35
23.21
23.04
21.41
17.86
12.28
5.03
-2.98
-10.48
-16.10
-18.69
-17.60
-12.84
-5.01
4.76
15.06
24.42
31.59
35.72
36.45
33.91
28.60
21.19
12.42
3.09
-5.92
-13.51
-18.48
-19.80
-16.99
-10.37
-1.09
9.26
19.09
27.18
32.90
35.97
36.29
33.74
28.21
19.75
8.73
-3.96
-16.97
-28.60
-37.02
-40.73
-38.98
-32.10
-21.55
-9.59
1.41
9.67
14.43
15.97
15.21
13.13
10.39
7.22
3.61
-0.43
-4.66
-8.62
-11.84
-14.06
-15.37
-16.11
-16.68
-17.23
-17.65
-17.54
-16.53
-14.49
-11.69
-8.71
-6.18
-4.55
-3.87
-3.85
-3.95
-3.69
-2.78
-1.24
0.65
2.47
3.85
4.59
4.73
4.52
4.26
4.16
4.27
4.44
4.50
4.36
4.10
3.88
3.84
4.00
4.18
4.12
3.58
2.44
0.78
-1.15
-3.05
-4.65
-5.77
-6.36
-6.46
-6.14
-5.47
-4.42
-2.95
-1.09
1.03
3.11
4.84
6.01
6.61
6.86
7.05
7.42
7.97
8.46
8.62
8.25
7.40
6.34
5.42
4.89
4.80
5.04
5.44
5.89
6.34
6.83
7.31
7.69
7.84
7.63
7.09
6.33
5.55
4.87
4.32
3.81
3.19
2.40
1.42
0.30
-0.94
-2.25
-3.55
-4.68
-5.48
-5.80
-5.52
-4.60
-3.19
-1.48
0.27
1.89
3.25
4.30
4.95
5.20
5.00
4.23
2.66
0.07
-3.48
-7.76
-12.32
-16.64
-19.95
-21.63
-21.57
-20.27
-18.69
-17.61
-17.64
-18.98
-21.42
-23.70
-24.19
-21.63
-15.54
-6.44
4.87
16.88
27.67
35.29
39.17
39.86
38.57
36.74
35.80
37.37
42.09
49.24
56.75
63.11
67.25
68.57
66.85
58.34
42.54
22.61
5.63
-7.53
-17.32
-24.42
-28.91
-31.07
-31.44
-30.13
-27.54
-24.44
-21.99
-20.25
-18.85
-17.48
-16.15
-15.07
-14.00
-12.87
-11.89
-11.66
-12.10
-12.88
-13.76
-14.66
-15.65
-16.46
-16.96
-17.29
-17.86
-18.61
-19.24
-19.35
-18.64
-16.93
-14.16
-10.57
-6.71
-3.29
-0.65
1.19
2.42
3.27
3.91
4.45
4.91
5.27
5.47
5.57
5.67
5.82
6.02
6.19
6.27
6.20
5.92
5.45
4.83
4.15
3.53
3.03
2.62
2.23
1.77
1.19
0.52
-0.14
-0.69
-1.05
-1.19
-1.18
-1.11
-1.10
-1.22
-1.50
-1.89
-2.29
-2.60
-2.79
-2.90
-3.02
-3.18
-3.31
-3.17
-2.51
-1.19
0.72
2.89
4.92
6.49
7.53
8.19
8.72
9.35
10.14
11.02
11.87
12.54
12.92
12.88
12.24
10.84
8.62
5.73
2.56
-0.38
-2.65
-4.05
-4.74
-5.16
-5.78
-6.93
-8.61
-10.53
-12.23
-13.35
-13.73
-13.45
-12.74
-11.78
-10.67
-9.42
-8.06
-6.67
-5.46
-4.61
-4.20
-4.15
-4.26
-4.28
-4.08
-3.64
-3.04
-2.44
-1.91
-1.51
-1.22
-1.07
-1.10
-1.37
-1.95
-2.84
-4.01
-5.36
-6.76
-8.04
-9.02
-9.56
-9.54
-8.98
-7.99
-6.80
-5.62
-4.61
-3.78
-3.07
-2.38
-1.72
-1.21
-1.07
-1.50
-2.54
-4.04
-5.65
-6.96
-7.61
-7.45
-6.55
-5.18
-3.70
-2.44
-1.68
-1.62
-2.29
-3.52
-4.84
-5.55
-4.96
-2.69
1.07
5.56
9.81
13.01
14.82
15.35
14.90
13.64
11.49
8.30
4.09
-0.71
-5.35
-9.11
-11.54
-12.70
-12.98
-12.90
-12.89
-13.10
-13.54
-14.06
-14.52
-14.81
-14.92
-14.90
-14.84
-14.79
-14.69
-14.26
-13.13
-10.89
-7.36
-2.63
2.88
8.48
13.41
17.00
18.78
18.67
17.00
14.51
12.13
10.77
11.01
12.93
16.13
19.92
23.62
26.75
29.11
30.67
31.45
31.43
30.62
29.15
27.34
25.66
24.52
24.09
24.15
24.18
23.56
21.85
18.94
15.14
11.03
7.29
4.44
2.76
2.21
2.48
3.21
4.06
4.90
5.80
6.87
8.08
9.13
9.53
8.74
6.49
2.94
-1.33
-5.49
-8.71
-10.41
-10.40
-8.83
-6.15
-2.94
0.24
2.86
4.54
5.04
4.25
2.24
-0.79
-4.44
-8.22
-11.64
-14.30
-16.05
-17.02
-17.51
-17.89
-18.39
-19.02
-19.56
-19.70
-19.17
-17.85
-15.81
-13.33
-10.80
-8.63
-7.22
-6.82
-7.47
-9.00
-11.00
-12.93
-14.18
-14.29
-13.00
-10.36
-6.73
-2.70
1.04
3.88
5.45
5.70
4.98
3.85
2.98
2.93
4.02
6.22
9.19
12.31
14.82
16.02
15.45
12.97
8.84
3.65
-1.87
-6.98
-11.11
-13.94
-15.43
-15.78
-15.27
-14.18
-12.74
-11.06
-9.26
-7.47
-5.89
-4.71
-4.05
-3.85
-3.89
-3.88
-3.64
-3.15
-2.59
-2.18
-2.02
-2.07
-2.14
-2.03
-1.69
-1.19
-0.71
-0.33
-0.06
0.26
0.79
1.61
2.67
3.81
4.88
5.75
6.35
6.60
6.47
5.95
5.12
4.19
3.50
3.34
3.84
4.85
5.90
6.42
5.98
4.53
2.42
0.24
-1.44
-2.40
-2.79
-3.06
-3.58
-4.47
-5.51
-6.32
-6.60
-6.32
-5.72
-5.15
-4.79
-4.58
-4.26
-3.53
-2.27
-0.64
0.98
2.13
2.41
1.63
-0.21
-2.89
-5.98
-8.95
-11.18
-12.19
-11.73
-9.87
-6.97
-3.52
0.02
3.41
6.54
9.41
11.93
13.95
15.21
15.62
15.31
14.69
14.28
14.43
15.19
16.28
17.27
17.76
17.52
16.47
14.58
11.81
8.17
3.77
-1.13
-6.17
-10.99
-15.38
-19.22
-22.43
-24.78
-25.92
-25.54
-23.56
-20.33
-16.50
-12.88
-10.06
-8.31
-7.52
-7.36
-7.42
-7.38
-7.04
-6.36
-5.38
-4.18
-2.83
-1.38
0.15
1.73
3.34
4.93
6.45
7.83
9.03
10.02
10.77
11.23
11.37
11.22
10.83
10.31
9.79
9.34
8.95
8.56
8.08
7.46
6.66
5.65
4.38
2.79
0.86
-1.31
-3.46
-5.22
-6.28
-6.49
-6.00
-5.22
-4.58
-4.45
-4.89
-5.74
-6.70
-7.46
-7.80
-7.59
-6.74
-5.24
-3.17
-0.77
1.61
3.57
4.89
5.53
5.66
5.49
5.15
4.68
4.06
3.38
2.88
2.86
3.54
4.92
6.76
8.73
10.53
12.05
13.22
13.97
14.04
13.13
11.05
8.02
4.63
1.74
0.04
-0.23
0.56
1.66
2.26
1.88
0.48
-1.56
-3.65
-5.24
-5.97
-5.75
-4.70
-3.09
-1.28
0.38
1.59
2.17
2.05
1.29
0.05
-1.44
-2.91
-4.09
-4.81
-5.03
-4.81
-4.26
-3.53
-2.72
-1.86
-0.99
-0.16
0.57
1.04
1.06
0.38
-1.30
-4.27
-8.63
-14.19
-20.29
-25.95
-29.94
-31.22
-29.19
-23.99
-16.50
-8.11
-0.31
5.72
9.49
11.20
11.57
11.46
11.52
12.06
12.99
14.07
15.12
16.09
17.09
18.17
19.27
20.11
20.26
19.41
17.44
14.61
11.44
8.56
6.48
5.40
5.15
5.38
5.68
5.83
5.79
5.66
5.51
5.33
5.01
4.53
3.94
3.35
2.76
1.93
0.35
-2.55
-7.04
-12.83
-19.01
-24.32
-27.58
-28.20
-26.28
-22.57
-18.10
-13.72
-9.91
-6.74
-4.09
-1.90
-0.26
0.63
0.60
-0.31
-1.99
-4.25
-7.06
-10.41
-14.20
-18.05
-21.24
-22.98
-22.73
-20.57
-17.27
-13.95
-11.59
-10.61
-10.69
-11.03
-10.77
-9.40
-6.95
-3.90
-0.84
1.73
3.65
4.93
5.64
5.80
5.30
4.13
2.47
0.75
-0.40
-0.41
0.99
3.64
6.96
10.18
12.59
13.81
13.83
12.95
11.61
10.24
9.18
8.68
8.93
9.98
11.68
13.62
15.22
15.95
15.55
14.23
12.57
11.25
10.71
10.96
11.59
12.08
12.04
11.45
10.49
9.44
8.39
7.25
5.84
4.09
2.11
0.16
-1.56
-3.08
-4.65
-6.61
-9.10
-11.94
-14.66
-16.64
-17.43
-16.92
-15.33
-13.20
-11.09
-9.52
-8.75
-8.80
-9.40
-10.11
-10.46
-10.09
-8.86
-6.90
-4.48
-1.90
0.68
3.22
5.78
8.32
10.63
12.39
13.24
12.99
11.77
9.90
7.83
5.91
4.33
3.10
2.24
1.79
1.89
2.56
3.69
4.95
5.91
6.22
5.72
4.48
2.69
0.57
-1.72
-4.03
-6.16
-7.87
-8.92
-9.19
-8.79
-8.02
-7.31
-7.06
-7.55
-8.90
-11.18
-14.43
-18.54
-23.21
-27.77
-31.24
-32.60
-31.12
-26.68
-19.92
-12.01
-4.26
2.33
7.31
10.81
13.28
15.19
16.85
18.33
19.57
20.48
21.03
21.27
21.23
20.89
20.13
18.84
16.94
14.50
11.76
9.06
6.81
5.25
4.48
4.33
4.47
4.55
4.31
3.73
2.93
2.10
1.35
0.68
-0.05
-0.98
-2.10
-3.24
-4.13
-4.54
-4.36
-3.68
-2.75
-1.86
-1.29
-1.16
-1.49
-2.15
-2.92
-3.58
-3.98
-4.09
-4.00
-3.90
-3.99
-4.38
-5.04
-5.78
-6.35
-6.50
-6.07
-5.04
-3.51
-1.68
0.19
1.86
3.12
3.86
4.11
3.97
3.59
3.07
2.41
1.62
0.72
-0.16
-0.84
-1.14
-0.94
-0.24
0.88
2.28
3.84
5.51
7.24
9.03
10.92
12.92
14.99
16.90
18.33
18.90
18.43
16.98
14.92
12.68
10.61
8.80
7.10
5.32
3.27
0.85
-1.97
-5.19
-8.75
-12.46
-15.93
-18.67
-20.25
-20.44
-19.37
-17.42
-15.05
-12.67
-10.55
-8.80
-7.41
-6.32
-5.40
-4.47
-3.33
-1.78
0.31
3.02
6.33
10.13
14.21
18.20
21.59
23.83
24.47
23.29
20.38
16.06
10.81
5.13
-0.43
-5.26
-8.74
