1579735756.00
64.000000
-0.00
-0.00
-0.00
-0.00
-0.00
-0.00
-0.00
-0.00
-0.00
-0.00
0.00
0.01
0.01
-0.00
-0.03
-0.05
-0.05
0.00
0.13
0.36
0.66
1.01
1.37
1.72
2.06
2.40
2.79
3.24
3.80
4.42
5.06
5.66
6.20
6.68
7.15
7.68
8.31
9.14
10.09
11.04
11.88
12.56
13.14
13.76
14.65
15.96
17.91
20.32
22.90
25.38
27.58
29.57
31.68
34.32
37.81
42.54
48.15
54.10
59.83
64.97
69.58
74.14
79.34
85.71
93.76
103.00
112.62
121.73
129.77
136.75
143.30
150.75
157.77
166.64
177.95
191.79
206.97
220.57
228.25
225.36
208.53
176.87
132.76
80.05
23.07
-34.94
-92.44
-149.16
-205.23
-260.37
-313.74
-363.87
-409.83
-450.91
-486.50
-515.74
-537.23
-549.22
-549.96
-538.37
-514.21
-478.67
-433.88
-382.45
-327.02
-269.84
-212.63
-156.66
-102.95
-52.37
-5.90
35.58
71.43
101.35
125.50
144.38
158.69
169.15
176.37
180.75
182.57
182.07
179.51
175.23
169.65
163.18
156.15
148.81
141.30
133.69
126.02
118.33
110.69
103.16
95.80
88.68
81.83
75.25
68.95
62.95
57.25
51.86
46.78
42.03
37.59
33.45
29.61
26.07
22.81
19.83
17.11
14.67
12.48
10.54
8.83
7.35
6.07
4.97
4.05
3.27
2.62
2.09
1.65
1.30
1.01
0.79
0.61
0.47
0.37
0.29
0.24
0.20
0.18
0.17
0.17
0.18
0.20
0.23
0.26
0.30
0.34
0.39
0.43
0.48
0.53
0.58
0.63
0.68
0.74
0.80
0.86
0.93
1.00
1.08
1.17
1.27
1.38
1.50
1.64
1.80
1.98
2.17
2.40
2.65
2.92
3.23
3.58
3.95
4.37
4.81
5.30
5.82
6.38
6.98
7.62
8.29
9.01
9.76
10.56
11.40
12.28
13.19
14.16
15.18
16.27
17.40
18.58
19.78
20.95
22.01
22.88
23.44
23.55
23.10
21.96
20.08
17.43
14.06
10.01
5.46
0.60
-4.36
-9.18
-13.65
-17.57
-20.78
-23.19
-24.73
-25.39
-25.23
-24.31
-22.71
-20.51
-17.78
-14.58
-10.94
-6.90
-2.47
2.26
7.22
12.27
17.34
22.28
26.98
31.31
35.20
38.65
41.49
43.69
45.30
46.45
47.30
48.06
48.94
50.16
51.97
54.22
56.86
59.87
63.25
66.98
71.02
75.35
80.03
85.25
90.59
95.92
101.20
106.42
111.58
116.62
121.48
126.13
130.69
134.47
137.17
138.59
138.52
136.56
131.93
123.26
108.28
90.47
70.77
50.00
28.97
8.43
-11.13
-29.57
-47.06
-63.98
-80.52
-97.51
-115.09
-132.91
-150.39
-167.09
-183.03
-198.84
-215.67
-234.62
-256.86
-282.15
-308.83
-334.38
-356.03
-371.16
-377.46
-372.99
-356.59
-329.09
-293.22
-253.38
-214.24
-179.14
-148.87
-121.99
-96.34
-70.84
-46.50
-25.58
-10.03
-0.17
5.39
8.54
10.17
9.75
5.93
-2.03
-13.17
-24.95
-34.38
-39.58
-40.67
-39.55
-38.86
-40.60
-45.31
-51.86
-57.97
-61.12
-59.31
-51.64
-38.37
-20.76
-0.49
20.82
41.99
62.25
81.04
97.79
111.98
123.33
132.06
138.78
144.13
148.32
150.91
151.15
148.51
143.18
136.10
128.51
121.51
115.65
111.13
107.98
106.33
106.24
107.39
108.93
109.62
108.19
103.91
96.78
87.45
76.91
66.03
55.38
45.20
35.55
26.47
18.09
10.55
3.99
-1.57
-6.19
-10.04
-13.41
-16.58
-19.72
-22.60
-24.62
-24.81
-22.19
-16.26
-7.34
3.52
14.88
25.38
34.28
41.39
46.94
51.15
54.12
55.92
56.76
57.16
57.74
59.00
61.00
63.35
65.44
66.77
67.19
66.92
66.23
65.30
63.97
61.87
58.65
54.12
48.36
41.54
33.77
24.87
14.35
1.50
-14.36
-33.50
-55.56
-79.44
-103.59
-126.30
-146.17
-162.32
-174.46
-182.68
-187.27
-188.58
-186.98
-182.95
-177.08
-170.00
-162.31
-154.45
-146.59
-138.75
-130.82
-122.67
-114.36
-106.14
-98.39
-91.38
-84.98
-78.46
-70.57
-60.01
-45.94
-28.42
-8.50
12.15
31.87
49.46
64.41
76.73
86.68
94.52
100.40
104.34
106.36
106.57
105.19
102.61
99.34
95.91
92.75
90.03
87.70
85.57
83.47
81.44
79.62
78.12
76.82
75.29
73.01
69.57
64.88
59.19
52.88
46.25
39.47
32.63
25.92
19.73
14.59
10.88
8.68
7.57
6.88
5.86
4.01
1.19
-2.46
-6.63
-11.05
-15.55
-20.03
-24.47
-28.98
-33.85
-39.51
-46.45
-54.83
-64.28
-73.68
-81.37
-85.56
-84.94
-79.17
-69.01
-56.16
-42.79
-30.90
-21.93
-16.54
-14.65
-15.67
-18.71
-22.73
-26.61
-29.07
-28.81
-24.73
-16.26
-3.69
11.77
28.18
43.43
55.75
64.17
68.62
69.61
67.97
64.49
59.77
54.22
48.14
41.76
35.26
28.77
22.40
16.31
10.87
6.62
4.27
4.37
7.08
11.97
18.00
23.87
28.30
30.44
30.01
27.24
22.64
16.84
10.45
4.03
-1.90
-7.00
-11.04
-14.01
-15.95
-16.84
-16.54
-14.70
-10.95
-4.98
3.19
13.21
24.33
35.48
45.43
53.03
57.54
58.92
57.82
55.39
52.78
50.62
48.82
46.58
42.89
36.96
28.70
18.78
8.47
-0.74
-7.59
-11.33
-11.91
-9.84
-5.98
-1.27
3.54
7.79
10.98
12.65
12.48
10.43
6.86
2.51
-1.73
-5.13
-7.38
-8.61
-9.30
-10.08
-11.48
-13.89
-17.47
-22.17
-27.70
-33.53
-39.00
-43.51
-46.78
-48.96
-50.73
-53.08
-56.95
-62.85
-70.50
-78.81
-86.06
-90.46
-90.67
-86.18
-77.35
-65.24
-51.16
-36.39
-22.02
-8.95
2.04
10.46
16.16
19.51
21.27
22.39
23.56
25.09
26.84
28.43
29.56
30.16
30.44
30.77
31.47
32.65
34.21
35.88
37.38
38.51
39.22
39.54
39.60
39.49
39.22
38.69
37.80
36.43
34.61
32.48
30.24
28.11
26.25
24.68
23.28
21.83
20.12
18.01
15.53
12.85
10.23
7.83
5.57
3.14
0.06
-4.03
-9.20
-15.14
-21.30
-27.20
-32.62
-37.77
-43.15
-49.43
-57.18
-66.71
-77.79
-89.58
-100.50
-108.43
-111.23
-107.37
-96.61
-80.18
-60.48
-40.37
-22.27
-7.62
3.32
11.07
16.53
20.51
23.54
25.85
27.48
28.40
28.54
27.79
26.07
23.35
19.77
15.69
11.69
8.41
6.39
5.87
6.67
8.28
10.05
11.39
12.01
11.97
11.54
11.10
10.93
11.14
11.67
12.33
12.94
13.37
13.60
13.76
14.01
14.62
15.80
17.62
19.96
22.54
24.88
26.59
27.40
27.39
26.88
26.33
26.04
26.03
25.98
25.36
23.71
20.90
17.13
12.81
8.26
3.54
-1.62
-7.50
-14.17
-21.15
-27.48
-31.91
-33.26
-30.76
-24.27
-14.34
-2.11
10.90
23.01
32.63
38.61
40.35
37.93
31.96
23.38
13.25
2.59
-7.57
-16.28
-22.71
-26.36
-27.31
-26.22
-24.23
-22.42
-21.49
-21.43
-21.72
-21.69
-20.99
-19.86
-19.02
-19.28
-21.07
-24.19
-27.88
-31.29
-33.89
-35.62
-36.71
-37.23
-36.79
-34.59
-29.88
-22.54
-13.44
-4.26
3.20
7.71
9.13
8.24
6.23
4.11
2.38
1.04
-0.07
-0.96
-1.52
-1.57
-1.17
-0.73
-0.94
-2.53
-6.01
-11.42
-18.25
-25.53
-31.99
-36.48
-38.16
-36.75
-32.60
-26.53
-19.53
-12.58
-6.37
-1.20
2.92
6.18
8.86
11.16
13.24
15.20
17.20
19.49
22.40
26.24
31.11
36.73
42.49
47.58
51.28
53.22
53.39
52.12
49.74
46.50
42.50
37.75
32.37
26.61
20.80
15.22
10.02
5.24
0.86
-3.07
-6.43
-9.19
-11.42
-13.45
-15.72
-18.66
-22.45
-27.03
-32.10
-37.27
-42.17
-46.56
-50.33
-53.60
-56.70
-60.17
-64.57
-70.16
-76.67
-83.09
-87.85
-89.22
-85.88
-77.32
-64.11
-47.71
-30.05
-13.08
1.68
13.32
21.52
26.42
28.40
27.98
25.78
22.50
18.87
15.65
13.46
12.70
13.51
15.90
19.77
25.08
31.72
39.41
47.61
55.36
61.52
64.99
65.06
61.68
55.51
47.72
39.59
32.16
25.92
20.89
16.84
13.70
11.62
10.95
11.97
14.64
18.56
23.10
27.63
31.67
34.83
36.77
37.05
35.23
30.95
24.05
14.66
3.15
-9.97
-24.11
-38.61
-52.75
-65.87
-77.43
-87.21
-95.31
-101.96
-107.30
-111.12
-112.72
-111.11
-105.27
-94.61
-79.28
-60.31
-39.44
-18.79
-0.29
14.67
25.55
32.58
36.66
38.95
40.54
42.18
44.17
46.38
48.44
49.93
50.49
50.01
48.68
47.05
45.84
45.80
47.35
50.35
54.03
57.21
58.69
57.65
53.96
48.16
41.16
33.93
27.09
20.81
14.80
8.59
1.85
-5.42
-12.85
-19.91
-26.21
-31.67
-36.61
-41.50
-46.58
-51.66
-56.15
-59.27
-60.55
-60.06
-58.46
-56.66
-55.51
-55.41
-56.25
-57.58
-58.73
-59.07
-57.96
-54.86
-49.29
-40.98
-30.04
-17.05
-3.04
10.73
23.01
32.76
39.31
42.48
42.66
40.78
38.09
35.87
34.98
35.64
37.49
39.94
42.54
45.12
47.82
50.74
53.84
56.87
59.54
61.72
63.47
64.96
66.39
67.85
69.50
71.54
74.13
77.24
80.59
83.65
85.96
87.37
88.17
88.85
89.73
90.52
90.24
87.54
81.24
70.86
56.87
40.34
22.42
3.95
-14.58
-32.78
-50.05
-65.62
-78.94
-90.06
-99.75
-109.10
-118.82
-128.69
-137.62
-144.05
-146.71
-145.11
-139.43
-130.33
-118.58
-104.98
-90.44
-75.99
-62.63
-51.02
-41.35
-33.34
-26.50
-20.37
-14.68
-9.26
-4.03
1.19
6.53
12.09
17.92
23.93
29.92
35.63
40.73
44.89
47.83
49.40
49.58
48.49
46.25
43.05
39.07
34.54
29.67
24.59
19.34
13.99
8.79
4.28
1.21
0.18
1.24
3.76
6.62
8.78
9.78
10.01
10.38
11.75
14.29
17.25
19.25
18.90
15.51
9.42
1.97
-4.97
-9.62
-10.74
-7.94
-1.56
7.49
18.15
29.33
40.11
49.63
57.01
61.46
62.50
60.23
55.52
49.84
44.74
41.31
39.75
39.31
38.79
37.12
34.03
30.15
26.79
25.31
26.44
29.90
34.53
38.71
41.12
41.24
39.64
37.76
37.25
39.39
44.48
51.71
59.61
66.61
71.68
74.69
76.18
77.04
78.00
79.32
80.66
81.05
78.91
72.10
58.36
35.98
4.70
-33.62
-75.15
-115.14
-149.50
-176.20
-195.80
-210.85
-224.35
-238.18
-252.13
-264.11
-271.24
-271.05
-262.51
-246.15
-223.65
-197.22
-168.99
-140.38
-111.87
-82.90
-52.47
-19.86
14.65
49.83
84.16
116.49
146.10
172.10
192.69
205.31
207.74
199.78
184.17
165.58
148.15
132.96
117.20
95.76
64.32
21.98
-27.71
-77.74
-119.64
-145.37
-148.75
-126.77
-80.38
-15.11
59.58
132.73
195.40
243.72
279.82
309.89
340.28
373.70
407.71
436.11
452.47
453.39
439.89
416.21
387.11
355.20
320.14
279.74
232.27
178.45
121.53
65.85
14.75
-31.08
-73.81
-117.26
-165.05
-219.17
-279.52
-344.32
-411.03
-476.73
-538.22
-591.91
-634.38
-663.98
-682.06
-693.32
-704.03
-718.99
-738.74
-758.78
-771.30
-768.71
-746.75
-705.75
-649.37
-582.14
-507.25
-425.97
-338.69
-246.48
-152.13
-59.95
25.62
101.37
166.32
221.70
270.23
315.06
358.84
403.55
450.35
499.35
548.84
594.71
630.65
649.48
645.71
617.90
569.82
509.37
445.86
386.86
336.35
294.78
260.56
231.89
207.84
188.29
173.10
161.54
152.16
143.31
133.62
122.33
109.47
95.58
81.51
68.25
56.77
47.93
42.50
41.09
44.13
51.48
62.10
73.72
83.11
87.00
83.22
71.75
54.86
36.30
19.94
8.39
2.54
1.74
4.59
9.50
14.98
19.67
22.27
21.87
18.35
12.74
7.16
4.22
5.97
13.15
24.98
39.57
54.80
69.14
81.98
93.41
103.73
112.95
120.74
126.61
130.29
131.95
132.23
131.98
132.05
133.14
135.77
140.11
145.79
151.67
155.91
156.38
151.27
139.83
122.56
101.09
77.61
54.18
32.29
12.80
-3.89
-17.56
-28.15
-36.48
-43.47
-49.80
-55.83
-61.80
-68.06
-75.04
-83.32
-93.59
-107.12
-124.47
-144.91
-166.45
-186.74
-203.76
-216.23
-223.70
-226.32
-226.44
-226.07
-226.03
-225.87
-224.88
-222.60
-218.79
-213.35
-206.16
-201.68
-202.60
-207.81
-213.25
-215.36
-213.36
-208.70
-203.77
-200.23
-207.75
-231.14
-266.61
-304.25
-335.35
-356.67
-369.57
-377.30
-382.48
-401.53
-443.70
-504.99
-571.28
-629.60
-674.63
-707.74
-733.19
-754.96
-796.39
-872.35
-980.18
-1102.39
-1219.66
-1319.32
-1395.55
-1447.01
-1360.59
-1092.96
-693.43
-272.10
83.18
343.10
518.18
631.34
696.83
737.18
745.50
717.01
660.69
597.02
544.50
511.88
497.63
496.42
503.85
500.93
476.55
433.59
385.53
345.27
318.50
304.59
300.33
303.10
300.62
285.63
259.67
231.08
208.01
194.18
189.38
191.64
199.04
204.55
203.60
196.17
185.99
177.20
172.24
171.69
175.15
181.80
188.39
192.49
193.48
192.58
191.74
192.60
196.40
204.03
216.23
233.05
253.63
275.72
295.52
308.38
310.05
298.28
273.76
239.80
200.87
161.00
122.51
86.14
52.15
21.52
-3.52
-20.25
-26.85
-23.78
-14.06
-2.43
6.29
8.72
3.63
-8.01
-23.75
-40.26
-53.97
-61.60
-60.81
-50.89
-33.03
-10.01
14.64
37.64
56.74
70.76
79.33
82.55
81.12
76.54
71.26
68.19
69.76
77.02
89.22
104.24
119.55
133.04
143.53
150.83
155.52
158.62
161.36
164.84
169.71
175.85
182.37
187.87
191.10
191.53
189.48
185.82
181.48
176.94
172.02
166.16
158.85
149.99
139.89
129.04
117.83
106.86
97.29
90.98
90.22
96.72
110.66
130.12
151.48
170.32
182.84
186.73
181.22
166.80
144.89
117.60
87.64
57.91
30.35
5.62
-17.42
-41.38
-69.31
-103.29
-143.26
-186.74
-229.45
-267.39
-297.40
-318.16
-330.70
-338.18
-344.60
-353.08
-364.42
-376.18
-384.20
-382.65
-366.51
-334.33
-290.03
-242.41
-202.32
-178.63
-174.56
-187.78
-209.80
-229.82
-239.52
-236.31
-223.14
-205.96
-190.43
-171.35
-146.39
-115.82
-82.19
-48.45
-16.58
12.21
36.69
54.26
64.08
63.69
52.24
31.50
5.49
-21.00
-44.08
-57.80
-57.75
-44.17
-23.28
-2.16
14.05
22.88
23.47
15.64
-0.58
-22.57
-49.19
-80.89
-116.75
-153.16
-183.88
-202.20
-203.84
-188.98
-158.94
-116.92
-71.53
-31.50
-1.25
20.90
40.70
64.40
95.75
139.93
199.02
270.57
349.35
429.64
506.30
574.06
627.17
633.96
579.76
477.52
361.57
262.48
189.46
132.74
76.96
14.02
-52.01
-101.59
-115.61
-88.56
-33.19
25.90
64.31
68.20
41.22
-6.48
-57.16
-96.81
-121.70
-137.97
-155.08
-179.18
-210.41
-240.23
-264.65
-279.14
-281.61
-272.62
-254.05
-227.33
-193.40
-154.15
-113.12
-76.12
-46.19
-24.41
-10.57
-4.00
-3.68
-7.93
-14.40
-20.26
-23.74
-23.11
-18.41
-11.67
-5.99
-3.85
-6.08
-11.58
-18.05
-23.65
-26.99
-27.89
-27.36
-26.92
-27.87
-30.68
-34.86
-39.18
-42.37
-43.26
-41.18
-36.13
-28.65
-19.58
-9.25
2.09
14.37
27.37
40.71
53.77
65.56
74.87
80.48
81.46
77.45
68.66
55.76
39.69
21.77
3.23
-14.90
-31.84
-47.11
-60.43
-71.71
-81.11
-89.01
-95.33
-100.26
-104.17
-107.57
-111.25
-115.67
-121.09
-127.73
-135.68
-143.80
-151.19
-157.42
-162.50
-167.30
-171.85
-175.84
-178.80
-180.12
-177.12
-167.92
-151.84
-129.31
-102.62
-72.44
-38.37
1.01
43.23
89.62
140.81
196.00
252.81
306.10
353.28
393.07
424.77
448.62
468.45
486.95
504.58
519.47
526.00
522.25
508.36
485.80
438.81
363.24
265.36
159.86
79.07
28.99
8.19
12.47
29.90
49.47
62.99
63.48
45.92
8.45
-49.69
-122.01
-198.10
-266.23
-314.98
-333.52
-315.43
-260.98
-177.62
-79.90
18.30
104.98
171.60
214.25
227.40
211.04
172.25
123.18
74.05
31.51
-3.01
-29.47
-50.20
-66.35
-78.90
-90.20
-104.67
-128.82
-164.96
-212.05
-264.06
-310.08
-337.21
-335.56
-302.46
-245.35
-180.41
-126.29
-97.72
-100.76
-132.38
-183.89
-245.51
-307.74
-362.49
-403.21
-424.84
-424.96
-404.99
-370.24
-320.14
-260.68
-200.44
-147.08
-104.76
-73.36
-50.00
-31.90
-13.58
7.95
32.52
58.83
85.13
110.66
134.22
156.15
177.81
201.01
225.63
250.70
275.48
298.81
318.82
333.60
340.76
338.70
328.23
311.16
291.93
275.92
266.44
255.35
235.47
202.52
157.87
117.37
88.39
74.85
78.71
96.87
126.45
164.97
208.73
252.39
289.74
312.48
315.19
297.19
261.73
214.36
161.67
108.44
57.06
8.36
-39.75
-87.97
-134.56
-176.54
-211.63
-238.75
-258.95
-274.33
-286.43
-297.77
-309.25
-320.08
-321.96
-308.72
-278.69
-236.23
-198.04
-170.41
-155.41
-154.42
-165.68
-189.77
-228.74
-283.88
-354.44
-427.55
-486.15
-514.49
-503.15
-452.09
-370.61
-274.51
-180.22
-99.64
-37.02
8.47
43.75
73.84
100.77
124.98
146.81
168.12
192.73
225.36
270.04
325.29
387.39
447.35
497.75
533.01
549.19
543.56
515.18
465.76
400.42
326.79
253.33
187.36
132.57
89.22
55.49
29.65
10.98
-1.09
-9.06
-16.97
-28.43
-44.94
-64.64
-84.52
-102.30
-117.39
-130.70
-145.41
-164.07
-186.83
-211.06
-231.66
-245.21
-251.63
-253.31
-254.13
-260.85
-280.36
-317.75
-370.17
-430.01
-488.22
-536.53
-567.77
-567.70
-531.96
-467.41
-389.26
-321.53
-265.87
-215.22
-163.14
-105.46
-42.51
20.74
79.41
131.44
173.11
205.14
240.67
287.49
339.70
389.84
429.71
454.26
463.39
461.46
460.09
469.27
493.10
531.15
580.82
637.20
694.77
747.51
767.37
734.01
639.84
495.80
328.38
167.06
31.38
-72.14
-146.87
-200.42
-235.75
-253.67
-255.47
-244.50
-226.30
-207.68
-194.10
-188.01
-188.74
-190.64
-187.80
-177.18
-159.49
-138.26
-118.05
-102.32
-92.41
-87.65
-84.36
-78.77
-68.72
-54.49
-38.28
-23.00
-11.05
-3.49
-0.19
0.60
0.72
1.23
2.23
2.85
2.02
-1.02
-6.29
-13.18
-20.41
-26.71
-31.14
-33.32
-33.35
-31.55
-28.51
-24.62
-20.10
-15.05
-9.59
-3.75
2.48
9.20
16.69
24.84
33.74
43.56
54.41
66.38
79.17
92.40
105.86
119.56
132.94
145.54
156.88
166.40
173.50
177.11
176.04
168.81
158.18
145.22
130.80
115.63
100.27
85.18
69.93
54.15
37.93
22.04
6.83
-7.24
-19.89
-30.99
-40.60
-50.94
-63.91
-79.92
-97.62
-115.34
-131.49
-145.01
-155.41
-162.60
-171.13
-184.88
-204.74
-228.04
-250.76
-269.36
-281.49
-286.02
-282.67
-278.99
-281.56
-292.41
-308.13
-323.31
-333.68
-337.53
-335.36
-329.01
-330.64
-350.55
-392.49
-453.01
-526.12
-607.35
-694.06
-783.19
-819.43
-767.22
-625.88
-431.15
-228.29
-49.35
90.83
190.19
250.43
287.75
305.30
303.35
284.23
254.45
222.02
193.46
172.14
159.34
155.41
151.76
141.18
121.44
96.52
72.89
55.80
47.97
49.91
61.04
74.66
84.81
88.83
88.22
86.13
85.14
86.42
90.09
95.95
100.83
102.17
99.05
93.14
86.65
80.95
76.23
72.08
68.34
63.96
58.40
51.72
46.34
44.08
44.97
47.41
49.51
50.50
50.68
51.13
52.83
60.14
75.39
97.46
122.18
145.12
164.14
179.78
194.11
209.16
232.31
267.65
313.74
364.16
411.76
452.65
486.98
517.80
549.23
593.47
658.66
744.20
839.70
929.69
1000.17
1042.36
1054.45
988.31
824.80
581.51
307.49
53.30
-153.37
-308.18
-418.72
-494.30
-542.75
-562.58
-554.97
-527.21
-491.91
-461.68
-443.93
-440.23
-448.33
-464.01
-475.80
-474.00
-454.34
-419.37
-376.06
-330.17
-289.73
-260.51
-244.58
-236.21
-228.56
-217.50
-203.40
-189.26
-176.79
-166.05
-155.22
-143.05
-128.07
-110.90
-93.89
-80.03
-71.24
-65.82
-60.74
-52.96
-41.85
-28.24
-14.12
-1.22
9.86
20.22
34.68
56.53
89.33
134.31
189.85
251.45
312.10
363.16
385.31
365.94
305.71
220.82
133.89
62.43
12.96
-17.57
-36.55
-50.64
-61.18
-66.62
-65.31
-58.42
-49.76
-43.54
-42.30
-45.97
-52.58
-57.43
-56.54
-48.24
-34.28
-18.78
-6.24
0.17
-0.57
-7.75
-18.16
-28.47
-36.79
-43.42
-50.37
-60.03
-73.90
-90.47
-109.18
-128.59
-147.25
-163.40
-174.54
-177.26
-168.05
-145.33
-111.00
-71.06
-33.04
-3.51
14.42
21.63
21.74
18.83
15.43
12.30
8.83
4.83
0.83
-2.19
-3.61
-3.75
-3.55
-3.95
-5.36
-7.33
-8.63
-8.11
-5.22
-0.25
5.84
12.28
18.71
25.43
33.07
42.08
52.19
62.26
70.85
76.72
79.53
80.00
79.56
79.85
82.31
87.82
96.31
106.28
114.47
116.30
107.42
85.65
52.63
13.63
-24.20
-54.53
-74.13
-83.56
-86.04
-85.28
-83.87
-82.57
-80.72
-77.43
-72.56
-66.98
-62.46
-60.69
-62.05
-64.67
-64.48
-56.81
-38.60
-10.27
24.11
58.45
87.29
108.31
123.03
135.24
148.65
165.04
182.14
197.91
211.29
222.65
232.94
242.21
248.52
248.16
237.21
213.58
178.49
135.94
91.29
49.64
14.54
-12.51
-31.87
-45.32
-55.55
-65.16
-76.07
-88.72
-101.92
-113.33
-121.27
-125.57
-128.20
-132.66
-142.57
-160.64
-187.72
-222.09
-259.01
-291.15
-310.04
-309.14
-287.01
-248.81
-204.97
-166.91
-142.19
-131.42
-128.69
-124.92
-112.45
-88.17
-54.07
-15.88
19.89
47.57
63.13
64.32
50.73
23.62
-14.83
-61.73
-113.67
-165.73
-211.25
-242.97
-255.01
-245.10
-215.88
-174.04
-127.25
-80.70
-34.35
15.58
72.20
133.75
192.09
234.91
250.31
232.05
182.70
114.13
43.31
-13.87
-47.62
-56.33
-45.19
-23.20
2.00
21.05
27.33
20.47
4.99
-14.24
-34.82
-55.88
-76.63
-95.23
-109.61
-117.52
-118.23
-113.28
-105.85
-99.00
-93.12
-86.48
-78.11
-67.18
-53.34
-37.10
-19.92
-3.71
10.22
23.22
37.26
53.58
72.08
91.83
111.71
130.81
148.72
165.65
184.82
209.05
239.61
275.83
315.68
356.51
395.02
427.30
449.51
462.19
467.53
468.36
467.01
464.53
460.53
453.24
440.22
400.98
326.96
224.27
111.89
10.58
-67.63
-121.45
-156.04
-177.90
-191.80
-197.40
-193.60
-180.91
-162.37
-142.45
-125.14
-112.93
-106.72
-105.92
-107.71
-109.24
-108.97
-107.34
-106.15
-107.45
-112.86
-123.23
-138.41
-156.40
-174.20
-189.05
-199.32
-204.87
-207.08
-208.76
-214.08
-222.40
-235.22
-254.07
-279.46
-309.64
-339.55
-361.04
-365.04
-345.28
-301.74
-242.56
-181.24
-131.99
-104.60
-101.06
-115.84
-139.20
-161.73
-177.40
-184.70
-184.28
-177.05
-163.32
-143.23
-117.81
-89.52
-61.88
-38.03
-19.87
-6.90
3.04
12.60
23.86
37.78
54.36
72.98
92.84
112.85
132.13
150.15
166.84
182.63
198.43
215.42
234.57
256.25
280.19
306.41
335.49
367.84
402.35
435.37
461.50
475.37
474.31
459.56
436.64
412.24
390.63
371.21
349.36
320.23
281.49
234.50
182.35
129.15
77.47
27.67
-21.45
-70.31
-116.04
-153.89
-179.95
-195.07
-202.96
-209.40
-219.48
-235.72
-256.19
-273.73
-279.83
-268.75
-242.04
-204.58
-163.03
-122.98
-88.15
-67.69
-66.87
-84.43
-101.48
-111.12
-112.43
-110.76
-107.93
-103.98
-97.28
-83.81
-59.12
-20.35
30.34
88.58
147.16
197.24
229.32
236.29
216.75
174.80
118.57
56.75
-0.32
-42.82
-62.99
-57.54
-28.09
19.70
77.15
134.32
181.36
212.14
224.72
220.96
204.88
181.88
157.89
137.91
124.74
117.55
113.20
107.28
95.92
76.93
50.67
20.13
-10.33
-36.47
-56.13
-69.73
-80.20
-91.93
-109.63
-136.96
-175.08
-221.85
-271.81
-317.15
-349.62
-362.82
-354.10
-325.75
-284.36
-238.13
-193.84
-154.97
-121.83
-93.12
-67.83
-45.89
-28.27
-16.25
-9.85
-7.17
-5.08
-0.38
9.35
25.67
49.57
80.56
115.62
149.80
177.46
193.86
196.64
186.75
165.59
139.09
115.82
101.70
97.18
98.75
102.82
107.79
113.78
120.98
128.62
134.41
134.48
125.99
108.63
84.69
57.63
30.46
4.13
-22.86
-50.90
-82.76
-121.42
-169.03
-226.22
-291.57
-360.92
-427.18
-481.06
-513.71
-520.37
-501.59
-462.96
-412.80
-359.06
-306.68
-256.86
-208.23
-159.08
-109.65
-61.70
-17.45
21.87
56.71
88.82
120.29
152.74
187.13
223.16
259.93
295.81
328.20
353.69
368.78
371.09
360.54
339.82
313.36
285.95
261.03
239.89
222.05
206.18
191.18
176.46
161.93
147.70
134.02
121.38
110.48
101.92
95.97
92.41
90.67
90.12
90.16
90.17
89.06
85.14
76.53
61.85
40.95
15.22
-13.00
-41.45
-68.84
-95.25
-122.00
-150.98
-183.82
-220.98
-260.98
-300.36
-334.29
-358.05
-368.67
-366.10
-353.19
-334.63
-315.22
-298.39
-285.41
-275.53
-266.58
-255.84
-240.87
-220.00
-192.80
-160.08
-123.56
-85.32
-46.89
-8.70
30.00
70.60
114.19
160.33
206.47
248.15
280.12
298.25
301.03
290.16
269.92
245.46
220.98
198.76
179.30
162.37
148.05
137.01
130.01
127.14
127.33
128.74
129.40
127.89
123.44
115.84
104.83
89.88
70.30
45.69
16.65
-14.92
-45.93
-72.87
-92.88
-104.68
-108.99
-108.16
-105.39
-103.61
-104.70
-109.25
-116.88
-126.74
-137.93
-149.59
-160.85
-170.64
-177.84
-181.38
-180.43
-174.59
-163.97
-149.21
-131.46
-112.29
-93.43
-76.37
-62.15
-51.13
-43.02
-37.20
-33.08
-30.39
-29.28
-30.06
-32.84
-37.20
-42.06
-45.97
-47.42
-45.18
-38.35
-26.47
-9.43
12.54
38.74
68.20
99.97
133.60
169.34
207.65
248.05
288.22
323.90
350.03
362.66
360.71
346.48
324.77
300.88
278.71
259.95
244.40
231.30
220.44
212.41
207.85
206.41
206.02
203.38
195.19
179.76
157.77
132.21
106.84
84.62
66.45
51.16
36.54
20.73
3.22
-14.98
-32.07
-46.63
-58.31
-68.02
-77.40
-87.97
-100.44
-114.47
-129.09
-143.26
-156.63
-169.82
-184.25
-201.70
-223.90
-252.33
-287.98
-330.84
-379.12
-428.84
-474.14
-508.70
-527.74
-529.42
-515.24
-488.93
-454.76
-416.13
-375.29
-333.80
-293.27
-255.56
-222.24
-193.79
-169.20
-146.47
-123.49
-99.04
-73.08
-46.39
-20.16
4.82
28.47
51.62
76.06
104.41
139.41
182.76
233.70
288.11
339.06
378.71
401.01
403.84
389.61
364.14
334.50
307.00
286.08
274.23
272.32
279.80
294.58
312.82
329.49
339.71
340.47
331.82
316.69
299.28
283.06
269.27
256.60
242.14
223.04
197.69
166.20
130.05
91.27
51.88
13.88
-20.81
-50.47
-74.19
-92.90
-110.00
-130.85
-160.86
-202.75
-254.17
-307.35
-351.18
-374.92
-372.01
-342.09
-290.64
-226.79
-160.47
-100.40
-52.94
-21.74
-8.00
-10.38
-25.64
-49.76
-79.33
-112.41
-148.03
-184.84
-219.94
-248.95
-267.56
-273.36
-266.98
-251.78
-232.45
-213.34
-197.47
-186.27
-179.77
-177.17
-177.76
-181.74
-190.77
-207.32
-232.89
-265.94
-300.79
-328.89
-342.08
-336.47
-314.08
-281.47
-246.21
-213.06
-182.56
-152.43
-120.48
-87.03
-55.10
-28.54
-9.53
2.84
12.12
22.63
37.33
56.80
79.33
102.26
123.57
142.85
161.35
181.33
205.18
234.56
269.88
309.98
351.92
391.33
423.15
442.91
448.28
439.84
420.93
396.33
370.36
345.46
321.75
297.82
272.13
244.29
215.19
186.22
158.00
129.47
98.38
62.63
21.92
-21.61
-63.99
-101.33
-131.57
-154.96
-173.19
-187.75
-198.72
-204.95
-205.39
-200.53
-192.85
-185.83
-182.20
-182.46
-184.74
-185.91
-183.19
-175.29
-162.34
-145.08
-123.72
-97.53
-65.23
-26.00
19.48
68.62
117.50
162.10
199.67
229.53
252.94
272.05
288.59
302.99
314.20
320.47
320.36
313.63
301.38
285.62
268.30
250.61
232.69
213.98
193.75
171.56
147.32
121.13
93.02
62.78
30.08
-5.49
-44.46
-87.51
-135.15
-186.86
-239.97
-289.12
-326.93
-346.16
-342.59
-317.29
-276.93
-231.73
-191.85
-163.87
-149.01
-143.77
-142.55
-140.56
-135.69
-128.51
-120.90
-114.25
-108.60
-102.91
-96.15
-88.30
-80.62
-74.79
-71.63
-70.23
-68.14
-62.46
-51.36
-35.14
-16.27
1.46
14.38
20.23
18.77
11.78
2.33
-6.20
-11.01
-10.53
-4.55
6.00
19.46
33.88
47.25
57.57
62.85
61.48
52.67
37.14
17.48
-2.21
-17.30
-24.04
-20.75
-8.39
9.88
29.84
47.49
60.18
66.89
68.04
64.91
59.05
52.02
45.21
39.78
36.56
35.95
37.89
41.74
46.34
50.10
51.38
49.04
42.87
33.86
23.94
15.13
8.68
4.56
1.58
-1.72
-6.13
-11.14
-15.25
-16.83
-15.11
-10.69
-5.10
-0.11
3.21
4.75
5.22
5.51
6.17
7.09
7.63
6.86
4.03
-1.21
-8.62
-17.38
-26.23
-33.73
-38.56
-39.74
-36.81
-29.81
-19.28
-6.14
8.32
22.61
35.30
45.22
51.79
55.19
56.24
56.07
55.71
55.72
56.22
57.03
57.90
58.62
58.97
58.61
57.17
54.35
50.17
44.99
39.29
33.47
27.61
21.66
15.58
9.59
4.18
-0.08
-2.85
-4.26
-4.73
-4.92
-5.35
-6.33
-7.89
-9.84
-11.94
-14.08
-16.36
-19.20
-23.20
-28.96
-36.75
-46.26
-56.56
-66.21
-73.59
-77.25
-76.31
-70.66
-60.98
-48.46
-34.47
-20.09
-6.04
7.38
19.99
31.58
41.75
50.04
56.09
59.84
61.68
62.31
62.45
62.55
62.64
62.30
61.05
58.66
55.33
51.71
48.60
46.49
45.41
44.96
44.49
43.55
42.01
40.09
38.10
36.26
34.48
32.41
29.56
25.59
20.46
14.49
8.20
2.10
-3.49
-8.50
-13.02
-17.15
-20.95
-24.47
-27.84
-31.42
-35.74
-41.32
-48.36
-56.48
-64.61
-71.21
-74.65
-73.75
-68.15
-58.47
-46.05
-32.57
-19.58
-8.11
1.34
8.80
14.59
19.09
22.58
25.30
27.43
29.16
30.80
32.63
34.85
37.45
40.30
43.19
46.00
48.64
51.01
52.83
53.64
52.96
50.60
46.78
42.20
37.80
34.38
32.38
31.79
32.30
33.50
34.90
35.98
36.18
34.97
32.06
27.62
22.29
16.97
12.45
9.09
6.69
4.66
2.34
-0.83
-5.16
-10.83
-18.03
-27.05
-38.00
-50.73
-64.70
-79.13
-93.28
-106.64
-118.91
-129.83
-138.98
-145.71
-149.39
-149.51
-145.88
-138.49
-127.37
-112.56
-94.18
-72.71
-49.06
-24.53
-0.43
22.09
42.22
59.34
72.86
82.21
87.11
87.82
85.30
81.12
76.85
73.59
71.69
70.81
70.32
69.69
68.75
67.57
66.39
65.27
64.10
62.67
60.72
58.04
54.54
50.15
44.89
38.92
32.61
26.43
20.83
16.04
12.03
8.63
5.64
2.97
0.64
-1.39
-3.31
-5.50
-8.42
-12.42
-17.54
-23.51
-29.81
-35.76
-40.75
-44.34
-46.43
-47.30
-47.39
-47.13
-46.65
-45.62
-43.31
-38.94
-32.03
-22.61
-11.25
1.13
13.61
25.49
36.32
45.82
53.72
59.65
63.23
64.25
62.89
59.79
55.96
52.47
50.18
49.49
50.33
52.20
54.45
56.43
57.59
57.50
55.78
52.02
45.84
36.92
25.23
11.10
-4.75
-21.28
-37.28
-51.49
-62.86
-70.70
-74.87
-75.83
-74.48
-71.95
-69.14
-66.46
-63.77
-60.56
-56.36
-51.08
-45.11
-39.29
-34.61
-31.99
-31.87
-34.18
-38.15
-42.67
-46.58
-49.18
-50.51
-51.27
-52.43
-54.75
-58.43
-63.05
-67.81
-71.72
-73.83
-73.29
-69.45
-62.05
-51.49
-38.86
-25.76
-13.70
-3.71
3.98
9.79
14.37
18.25
21.70
24.76
27.42
29.54
30.76
30.51
28.14
23.36
16.68
9.38
3.21
-0.32
-0.56
2.14
6.70
11.92
17.06
22.04
27.19
32.82
38.79
44.52
49.14
51.91
52.54
51.21
48.38
44.63
40.30
35.54
30.34
24.66
18.53
12.08
5.51
-1.02
-7.28
-13.12
-18.36
-22.89
-26.74
-30.07
-33.21
-36.54
-40.39
-44.89
-49.98
-55.26
-60.09
-63.70
-65.31
-64.33
-60.48
-53.94
-45.26
-35.27
-24.80
-14.33
-3.90
6.83
18.22
30.22
42.08
52.51
60.09
63.87
63.76
60.53
55.47
49.83
44.42
39.48
34.83
30.32
25.97
22.09
18.99
16.77
15.11
13.39
10.97
7.53
3.32
-0.95
-4.42
-6.57
-7.45
-7.67
-8.04
-9.19
-11.28
-13.92
-16.41
-17.96
-17.89
-15.87
-11.94
-6.53
-0.46
5.30
9.84
12.42
12.67
10.59
6.46
0.78
-5.84
-12.79
-19.57
-25.85
-31.41
-35.98
-39.15
-40.36
-39.08
-35.04
-28.50
-20.14
-10.91
-1.68
6.93
14.55
20.92
25.86
29.14
30.78
31.05
30.57
30.07
30.10
30.88
32.05
32.92
32.72
31.04
28.04
24.40
21.01
18.49
16.98
16.11
15.34
14.34
13.17
12.18
11.62
11.45
11.21
10.37
8.63
6.15
3.49
1.32
0.07
-0.28
-0.08
0.17
0.07
-0.57
-1.70
-3.21
-4.94
-6.83
-8.90
-11.26
-14.01
-17.17
-20.64
-24.13
-27.39
-30.20
-32.56
-34.64
-36.70
-38.94
-41.40
-43.85
-45.89
-47.02
-46.77
-44.84
-41.08
-35.56
-28.48
-20.18
-11.17
-2.07
6.38
13.49
18.79
22.13
23.75
24.15
23.93
23.60
23.44
23.53
23.88
24.42
25.03
25.62
26.04
26.19
26.00
25.58
25.05
24.57
24.16
23.68
22.89
21.49
19.39
16.65
13.58
10.64
8.21
6.50
5.39
4.58
3.65
2.33
0.57
-1.44
-3.44
-5.26
-6.90
-8.53
-10.31
-12.27
-14.30
-16.22
-17.91
-19.47
-21.16
-23.23
-25.75
-28.54
-31.23
-33.56
-35.51
-37.33
-39.31
-41.47
-43.40
-44.31
-43.31
-39.80
-33.75
-25.71
-16.58
-7.41
0.97
8.01
13.46
17.34
19.80
21.06
21.34
20.90
19.95
18.74
17.54
16.57
16.03
16.01
16.53
17.55
18.98
20.60
22.13
23.19
23.38
22.52
20.65
18.11
15.37
12.88
10.82
9.15
7.64
6.04
4.20
2.10
-0.29
-2.95
-5.88
-9.05
-12.27
-15.32
-18.00
-20.21
-22.05
-23.75
-25.50
-27.39
-29.39
-31.35
-33.14
-34.82
-36.56
-38.59
-41.01
-43.64
-45.99
-47.36
-47.05
-44.63
-40.07
-33.73
-26.22
-18.20
-10.21
-2.67
4.10
9.88
14.52
17.97
20.37
21.91
22.90
23.62
24.25
24.92
25.64
26.34
26.93
27.30
27.37
27.16
26.72
26.15
25.54
24.89
24.16
23.22
21.92
20.08
17.68
14.82
11.79
8.97
6.66
4.91
3.55
2.23
0.81
-0.65
-1.82
-2.41
-2.33
-1.78
-1.19
-0.93
-1.16
-1.72
-2.35
-2.79
-3.06
-3.33
-3.97
-5.36
-7.78
-11.42
-16.32
-22.30
-28.88
-35.25
-40.41
-43.35
-43.40
-40.39
-34.74
-27.29
-19.00
-10.70
-2.98
3.84
9.48
13.77
16.58
17.99
18.29
18.01
17.71
17.85
18.65
19.98
21.57
22.97
23.93
24.31
24.27
24.01
23.74
23.50
23.16
22.54
21.51
20.18
18.75
17.44
16.29
15.08
13.51
11.35
8.68
5.82
3.20
1.14
-0.36
-1.53
-2.69
-4.05
-5.60
-7.18
-8.67
-10.04
-11.45
-13.05
-14.89
-16.83
-18.66
-20.17
-21.38
-22.52
-23.96
-26.05
-29.00
-32.82
-37.31
-42.12
-46.74
-50.54
-52.81
-52.88
-50.32
-45.07
-37.53
-28.47
-18.86
-9.58
-1.27
5.78
11.55
16.18
19.83
22.56
24.37
25.22
25.12
24.25
22.83
21.17
19.51
18.02
16.81
15.97
15.61
15.83
16.67
17.99
19.53
20.92
21.83
22.07
21.61
20.55
19.09
17.47
15.97
14.83
14.19
14.03
14.15
14.28
14.19
13.76
13.02
12.04
10.88
9.51
7.83
5.80
3.46
0.90
-1.81
-4.70
-7.83
-11.32
-15.20
-19.40
-23.82
-28.39
-33.06
-37.68
-41.92
-45.20
-46.82
-46.16
-43.00
-37.64
-30.81
-23.48
-16.53
-10.54
-5.79
-2.24
0.23
1.83
2.74
3.10
3.10
2.98
3.06
3.71
5.32
8.11
12.03
16.73
21.61
26.03
29.49
31.78
33.00
33.45
33.34
32.80
31.73
30.00
27.55
24.47
21.03
17.54
14.32
11.51
9.08
6.88
4.71
2.39
-0.22
-3.27
-6.79
-10.71
-14.82
-18.81
-22.44
-25.57
-28.23
-30.50
-32.37
-33.79
-34.60
-34.89
-34.89
-35.09
-35.98
-37.86
-40.68
-44.03
-47.26
-49.61
-50.38
-49.00
-45.20
-39.05
-31.01
-21.84
-12.42
-3.56
4.15
10.38
15.02
18.11
19.74
20.17
19.71
18.78
17.81
17.21
17.29
18.18
19.83
21.93
24.13
26.06
27.61
28.90
30.22
31.78
33.55
35.14
36.04
35.83
34.47
32.32
29.94
27.82
26.06
24.40
22.43
19.88
16.83
13.62
10.67
8.17
6.00
3.80
1.16
-2.09
-5.86
-9.79
-13.49
-16.70
-19.36
-21.62
-23.72
-25.88
-28.21
-30.71
-33.37
-36.19
-39.27
-42.67
-46.34
-49.94
-52.83
-54.14
-53.08
-49.22
-42.64
-33.84
-23.61
-12.71
-1.71
8.90
18.65
26.97
33.26
37.13
38.61
38.25
36.96
35.70
35.15
35.48
36.49
37.71
38.74
39.34
39.48
39.25
38.78
38.11
37.19
36.01
34.54
32.85
31.04
29.17
27.29
25.30
23.08
20.56
17.69
14.50
11.05
7.36
3.39
-0.90
-5.46
-10.19
-14.78
-18.91
-22.28
-24.79
-26.57
-27.99
-29.47
-31.39
-33.89
-36.95
-40.41
-44.00
-47.38
-50.03
-51.33
-50.61
-47.43
-41.73
-33.94
-24.91
-15.57
-6.76
0.97
7.39
12.44
16.18
18.73
20.19
20.65
20.29
19.36
18.22
17.34
17.14
17.85
19.39
21.30
23.00
23.97
24.01
23.25
22.03
20.65
19.23
17.68
15.90
13.95
12.07
10.54
9.52
8.97
8.67
8.29
7.71
6.91
6.01
5.11
4.20
3.18
2.01
0.76
-0.41
-1.38
-2.15
-2.93
-4.02
-5.65
-7.91
-10.71
-13.95
-17.60
-21.69
-26.23
-31.01
-35.54
-39.07
-40.92
-40.71
-38.45
-34.49
-29.29
-23.35
-17.13
-11.06
-5.60
-1.14
2.02
3.87
4.65
4.80
4.80
4.98
5.47
6.16
6.83
7.30
7.49
7.57
7.80
8.43
9.55
10.98
12.41
13.56
14.28
14.65
14.82
14.89
14.90
14.72
14.21
13.30
12.03
10.51
8.88
7.26
5.74
4.43
3.38
2.63
2.13
1.71
1.12
0.10
-1.56
-3.88
-6.70
-9.72
-12.59
-15.09
-17.22
-19.18
-21.29
-23.83
-26.90
-30.26
-33.34
-35.41
-35.73
-33.85
-29.69
-23.55
-15.99
-7.66
0.76
8.65
15.46
20.76
24.35
26.26
26.80
26.40
25.53
24.61
23.94
23.80
24.34
25.56
27.24
28.95
30.29
31.03
31.25
31.34
31.69
32.47
33.44
34.09
33.85
32.37
29.71
26.14
21.97
17.47
12.76
7.95
3.24
-1.09
-4.77
-7.58
-9.53
-10.79
-11.72
-12.76
-14.35
-16.88
-20.46
-25.00
-30.10
-35.36
-40.51
-45.48
-50.25
-54.62
-58.08
-59.80
-59.07
-55.56
-49.48
-41.50
-32.44
-23.05
-13.89
-5.50
1.60
6.93
10.37
12.28
13.53
15.15
17.74
21.23
24.83
27.49
28.52
27.96
26.55
25.24
24.70
24.94
25.46
25.66
25.30
24.57
23.98
23.84
24.06
24.19
23.65
22.23
20.12
17.86
15.91
14.42
13.20
11.87
10.15
7.99
5.60
3.20
0.93
-1.24
-3.42
-5.69
-8.04
-10.33
-12.46
-14.33
-15.99
-17.54
-19.15
-20.94
-22.98
-25.31
-27.91
-30.75
-33.72
-36.58
-38.90
-40.13
-39.65
-36.95
-31.87
-24.60
-15.83
-6.46
2.50
10.23
16.25
20.46
23.05
24.39
24.87
24.78
24.35
23.76
23.18
22.78
22.67
22.87
23.32
23.94
24.68
25.55
26.59
27.77
28.95
29.91
30.44
30.30
29.38
27.60
24.98
21.63
17.78
13.84
10.23
7.32
5.23
3.84
2.77
1.64
0.17
-1.73
-3.94
-6.21
-8.31
-10.09
-11.55
-12.77
-13.88
-14.99
-16.13
-17.36
-18.73
-20.28
-22.07
-23.99
-25.89
-27.59
-29.00
-30.30
-31.83
-33.96
-36.82
-40.09
-43.04
-44.79
-44.59
-42.13
-37.56
-31.34
-24.01
-16.16
-8.27
-0.94
5.24
9.73
12.30
13.21
13.14
12.97
13.38
14.54
16.10
17.45
18.07
17.90
17.27
16.76
16.80
17.51
18.68
19.93
20.92
21.48
21.59
21.26
20.41
18.94
16.82
14.15
11.21
8.33
5.74
3.47
1.35
-0.87
-3.36
-6.10
-8.94
-11.65
-14.05
-16.12
-17.99
-19.84
-21.76
-23.74
-25.68
-27.50
-29.19
-30.82
-32.52
-34.37
-36.32
-38.30
-40.24
-42.01
-43.30
-43.38
-41.16
-35.44
-25.48
-11.47
5.32
22.96
39.46
53.53
64.67
73.11
79.20
83.14
84.81
84.06
81.04
76.29
70.64
64.89
59.50
54.58
49.93
45.24
40.32
35.20
30.10
25.32
21.12
17.52
14.38
11.41
8.29
4.88
1.25
-2.34
-5.57
-8.15
-10.00
-11.19
-11.99
-12.73
-13.71
-15.11
-17.01
-19.29
-21.73
-24.02
-25.91
-27.26
-28.08
-28.53
-28.80
-29.11
-29.57
-30.26
-31.23
-32.56
-34.25
-36.26
-38.36
-40.30
-41.87
-43.04
-44.08
-45.34
-47.09
-49.25
-51.31
-52.42
-51.78
-48.87
-43.69
-36.71
-28.70
-20.41
-12.45
-5.20
1.05
6.05
9.63
11.74
12.60
12.72
12.71
13.12
14.17
15.79
17.68
19.53
21.21
22.71
24.10
25.44
26.69
27.80
28.71
29.41
29.86
29.99
29.63
28.63
26.87
24.37
21.26
17.77
14.14
10.63
7.42
4.62
2.19
-0.04
-2.26
-4.64
-7.14
-9.54
-11.57
-13.03
-13.94
-14.58
-15.29
-16.34
-17.79
-19.47
-21.11
-22.53
-23.68
-24.77
-26.03
-27.68
-29.80
-32.31
-34.99
-37.58
-39.77
-41.26
-41.66
-40.58
-37.63
-32.61
-25.60
-17.07
-7.83
1.14
8.89
14.76
18.50
20.28
20.58
20.02
19.15
18.33
17.72
17.35
17.19
17.22
17.51
18.13
19.17
20.67
22.59
24.77
26.92
28.65
29.62
29.63
28.71
27.08
25.11
23.09
21.14
19.22
17.22
15.07
12.81
10.57
8.44
6.38
4.28
1.99
-0.59
-3.49
-6.64
-9.95
-13.27
-16.42
-19.21
-21.52
-23.45
-25.31
-27.58
-30.71
-34.85
-39.69
-44.48
-48.30
-50.27
-49.88
-46.98
-41.84
-34.97
-27.06
-18.89
-11.28
-4.89
-0.15
2.96
4.78
5.88
6.79
7.76
8.77
9.71
10.52
11.33
12.42
13.97
15.94
17.97
19.63
20.63
21.04
21.24
21.57
22.14
22.74
22.94
22.39
21.01
19.01
16.73
14.49
12.47
10.67
9.10
7.73
6.56
5.59
4.75
3.92
2.93
1.66
0.04
-1.98
-4.29
-6.75
-9.19
-11.52
-13.74
-16.00
-18.50
-21.31
-24.39
-27.58
-30.73
-33.75
-36.60
-39.13
-41.00
-41.64
-40.40
-36.84
-30.88
-23.02
-14.18
-5.45
2.17
8.07
12.11
14.55
15.86
16.55
16.98
17.37
17.89
18.64
19.75
21.23
22.93
24.59
25.96
27.03
27.99
29.16
30.71
32.48
34.05
34.90
34.78
33.84
32.61
31.67
31.34
31.47
31.51
30.79
28.91
26.04
22.92
20.61
19.99
21.24
23.54
25.33
24.85
21.11
14.42
6.45
-0.39
-4.12
-4.27
-2.26
-0.92
-3.15
-10.39
-21.80
-34.48
-44.98
-50.97
-52.68
-52.75
-55.10
-63.13
-78.39
-100.33
-126.68
-153.62
-175.90
-187.07
-180.96
-154.57
-111.04
-60.85
-19.27
-0.64
-11.83
-48.59
-96.86
-138.77
-159.98
-154.67
-126.12
-83.26
-35.97
8.40
46.04
75.76
97.59
111.95
119.54
121.60
119.84
116.20
112.37
109.43
107.78
107.21
106.85
105.51
101.92
95.23
85.40
73.04
58.81
42.57
22.99
-2.03
-34.05
-72.84
-115.73
-158.35
-196.13
-225.73
-245.50
-254.99
-254.02
-242.19
-219.29
-186.29
-145.95
-102.49
-60.21
-21.93
11.97
43.25
74.57
107.84
142.98
177.64
207.91
229.65
239.97
238.14
225.70
205.59
180.87
153.58
124.66
94.62
64.54
36.71
14.30
0.14
-4.53
-0.86
7.96
17.89
25.61
29.53
29.98
28.42
26.17
23.57
19.97
14.45
6.81
-1.96
-10.02
-15.71
-18.38
-18.80
-18.55
-19.03
-20.73
-23.12
-25.19
-26.18
-25.99
-25.07
-24.06
-23.28
-22.68
-22.01
-21.07
-19.93
-18.81
-17.94
-17.36
-16.99
-16.75
-16.77
-17.34
-18.70
-20.84
-23.29
-25.24
-25.85
-24.56
-21.24
-16.15
-9.72
-2.40
5.46
13.55
21.44
28.72
34.96
39.85
43.28
45.25
45.83
45.14
43.37
40.76
37.69
34.61
31.92
29.99
29.04
29.05
29.80
30.87
31.74
31.98
31.34
29.83
27.71
25.37
23.20
21.42
20.00
18.71
17.21
15.22
12.70
9.89
7.23
5.16
3.90
3.31
2.99
2.49
1.57
0.27
-1.14
-2.44
-3.56
-4.65
-5.92
-7.47
-9.18
-10.80
-12.05
-12.86
-13.33
-13.74
-14.40
-15.49
-17.03
-18.93
-21.02
-23.14
-25.12
-26.73
-27.72
-27.73
-26.50
-23.86
-19.85
-14.74
-8.98
-3.18
2.10
6.40
9.50
11.44
12.37
12.56
12.20
11.48
10.63
9.91
9.62
9.93
10.82
12.01
13.13
13.84
14.05
13.92
13.71
13.58
13.49
13.26
12.81
12.23
11.80
11.77
12.08
12.36
12.11
11.02
9.28
7.42
6.12
5.77
6.28
7.17
7.83
7.82
7.04
5.63
3.77
1.57
-0.95
-3.76
-6.71
-9.56
-12.06
-14.08
-15.65
-16.93
-18.01
-18.84
-19.21
-18.82
-17.45
-15.06
-11.80
-7.85
-3.37
1.58
6.94
12.43
17.59
21.79
24.55
25.73
25.68
25.07
24.60
24.60
24.95
25.15
24.62
23.13
20.84
18.21
15.70
13.43
11.19
8.60
5.40
1.40
-3.83
-11.24
-22.33
-38.36
-59.30
-83.02
-105.57
-122.56
-130.98
-130.45
-123.00
-111.66
-98.77
-85.14
-70.42
-54.09
-36.20
-17.29
2.35
23.16
46.04
71.22
97.21
120.74
137.81
145.53
143.36
133.26
118.61
102.56
86.88
71.67
56.02
38.93
20.17
0.61
-17.95
-33.36
-43.79
-48.26
-46.87
-40.77
-31.78
-21.91
-12.89
-5.88
-1.48
0.12
-1.11
-5.07
-11.46
-19.55
-28.18
-35.91
-41.42
-43.98
-43.56
-40.75
-36.36
-30.87
-24.42
-17.01
-8.97
-1.21
4.80
7.67
6.84
3.10
-1.28
-3.19
0.42
11.42
29.97
54.47
82.25
110.40
136.56
159.21
177.40
190.33
196.99
196.37
187.89
172.02
150.51
125.98
101.04
77.47
55.75
35.33
15.24
-5.15
-25.79
-46.02
-64.93
-81.72
-95.90
-107.23
-115.59
-120.91
-123.06
-121.92
-117.41
-109.69
-99.38
-87.63
-76.05
-66.35
-59.77
-56.61
-56.19
-57.17
-58.13
-58.18
-57.16
-55.51
-53.79
-52.30
-50.99
-49.47
-47.31
-44.33
-40.65
-36.70
-33.02
-30.13
-28.32
-27.60
-27.79
-28.53
-29.53
-30.63
-31.76
-32.90
-33.96
-34.71
-34.88
-34.26
-32.77
-30.53
-27.78
-24.78
-21.73
-18.73
-15.86
-13.24
-10.97
-9.14
-7.72
-6.45
-5.03
-3.15
-0.75
1.92
4.46
6.48
7.84
8.67
9.27
9.84
10.39
10.82
11.08
11.33
11.93
13.27
15.51
18.49
21.74
24.66
26.85
28.26
29.21
30.24
31.68
33.42
34.76
34.61
31.96
26.40
18.37
9.09
0.13
-7.20
-12.19
-14.79
-15.40
-14.53
-12.81
-10.90
-9.58
-9.54
-11.11
-13.98
-17.26
-19.75
-20.46
-18.92
-15.30
-10.15
-4.19
1.85
7.30
11.48
13.66
13.32
10.37
5.33
-0.79
-6.82
-11.86
-15.37
-17.06
-16.63
-13.69
-8.04
-0.09
8.83
16.60
21.00
20.62
15.49
7.04
-2.49
-10.98
-17.09
-20.48
-21.46
-20.48
-17.83
-13.58
-7.85
-1.02
6.13
12.56
17.33
20.00
20.78
20.46
20.08
20.36
21.50
23.01
24.04
23.91
22.42
20.07
17.73
16.32
16.39
18.01
20.96
24.98
29.90
35.55
41.53
47.00
50.76
51.67
49.15
43.53
36.03
28.28
21.66
16.86
13.82
12.06
11.04
10.50
10.31
10.25
9.84
8.47
5.72
1.79
-2.52
-6.12
-8.20
-8.69
-8.34
-8.30
-9.46
-12.09
-15.66
-19.23
-21.92
-23.28
-23.27
-22.05
-19.74
-16.33
-11.85
-6.62
-1.36
2.98
5.61
6.33
5.67
4.69
4.56
6.05
9.16
13.27
17.42
20.80
23.08
24.36
25.02
25.35
25.54
25.61
25.57
25.44
25.17
24.53
23.06
20.16
15.43
8.95
1.37
-6.14
-12.32
-16.23
-17.55
-16.64
-14.26
-11.25
-8.22
-5.45
-2.90
-0.47
1.82
3.83
5.31
6.00
5.71
4.35
1.94
-1.23
-4.57
-7.27
-8.60
-8.39
-7.28
-6.56
-7.72
-11.69
-18.46
-27.10
-36.28
-44.88
-52.40
-58.92
-64.82
-70.33
-75.32
-79.30
-81.68
-81.86
-79.43
-74.19
-66.24
-56.01
-44.22
-31.84
-19.91
-9.36
-0.79
5.59
10.03
13.13
15.64
18.24
21.35
25.02
28.94
32.62
35.51
37.29
37.82
37.24
35.89
34.23
32.89
32.43
33.24
35.32
38.19
41.00
42.82
42.92
41.06
37.47
32.78
27.76
23.11
19.26
16.36
14.25
12.64
11.21
9.74
8.22
6.79
5.73
5.40
6.29
8.99
14.12
22.00
32.38
44.35
56.42
67.04
75.11
80.30
82.87
83.49
82.77
81.03
78.38
74.84
70.44
65.19
59.02
51.61
42.59
31.68
18.96
5.06
-8.96
-21.85
-32.53
-40.43
-45.63
-48.79
-50.82
-52.55
-54.42
-56.44
-58.20
-59.17
-58.81
-56.82
-53.22
-48.38
-42.98
-37.79
-33.51
-30.41
-28.38
-27.10
-26.32
-26.13
-26.90
-28.97
-32.33
-36.46
-40.50
-43.57
-45.27
-45.68
-45.20
-44.24
-43.00
-41.39
-39.28
-36.66
-33.73
-30.83
-28.23
-26.09
-24.40
-23.07
-22.00
-21.10
-20.25
-19.35
-18.38
-17.42
-16.73
-16.59
-17.19
-18.45
-19.98
-21.17
-21.45
-20.57
-18.69
-16.30
-14.00
-12.15
-10.80
-9.67
-8.38
-6.60
-4.22
-1.30
2.00
5.50
9.16
12.96
16.91
21.00
25.18
29.37
33.47
37.36
40.87
43.83
46.06
47.42
47.78
47.01
45.01
41.72
37.15
31.44
24.89
17.94
11.17
5.18
0.47
-2.56
-3.73
-3.13
-1.15
1.57
4.19
5.79
5.69
3.60
-0.14
-4.53
-8.14
-9.57
-8.02
-3.68
2.29
8.15
12.36
14.17
13.94
12.88
12.42
13.54
16.37
20.25
24.09
26.88
27.98
27.23
24.84
21.23
16.93
12.43
8.15
4.38
1.25
-1.20
-3.00
-4.17
-4.78
-5.05
-5.35
-6.11
-7.53
-9.46
-11.39
-12.66
-12.80
-11.85
-10.30
-8.87
-8.17
-8.45
-9.53
-11.03
-12.62
-14.15
-15.64
-17.18
-18.85
-20.63
-22.46
-24.28
-26.05
-27.72
-29.29
-30.74
-32.04
-33.13
-33.91
-34.26
-34.09
-33.48
-32.74
-32.39
-33.06
-35.17
-38.78
-43.50
-48.57
-53.26
-57.11
-60.13
-62.79
-65.71
-69.42
-74.14
-79.81
-86.21
-93.15
-100.48
-108.02
-115.38
-122.09
-127.79
-132.70
-137.67
-143.79
-151.58
-160.25
-167.50
-170.22
-165.72
-152.84
-132.51
-107.24
-80.12
-53.57
-28.76
-5.62
16.70
39.25
63.13
89.57
120.14
156.33
198.66
245.45
292.27
332.56
359.54
368.74
359.67
336.07
304.28
270.93
240.61
215.10
193.81
175.17
157.93
141.73
126.92
113.96
102.93
93.31
84.25
74.89
64.76
54.06
43.51
34.02
26.19
19.98
14.79
9.72
4.13
-2.04
-8.26
-13.72
-17.77
-20.27
-21.65
-22.59
-23.67
-25.13
-26.79
-28.35
-29.65
-30.81
-32.10
-33.73
-35.50
-36.78
-36.80
-34.97
-31.31
-26.54
-21.89
-18.53
-17.09
-17.33
-18.26
-18.65
-17.57
-14.80
-10.80
-6.43
-2.51
0.56
2.75
4.21
5.03
5.18
4.58
3.25
1.39
-0.65
-2.58
-4.26
-5.81
-7.46
-9.48
-12.02
-15.02
-18.20
-21.15
-23.51
-25.10
-26.05
-26.62
-27.17
-27.90
-28.86
-29.93
-30.90
-31.65
-32.07
-32.11
-31.75
-30.99
-29.92
-28.66
-27.32
-25.87
-24.26
-22.44
-20.54
-18.84
-17.71
-17.32
-17.58
-18.12
-18.50
-18.49
-18.18
-17.94
-18.17
-19.11
-20.69
-22.59
-24.34
-25.49
-25.63
-24.48
-21.99
-18.32
-13.92
-9.37
-5.30
-2.07
0.27
2.06
3.79
5.89
8.40
10.99
13.09
14.20
14.09
12.93
11.16
9.31
7.75
6.60
5.76
5.01
4.18
3.15
1.93
0.53
-0.98
-2.48
-3.70
-4.27
-3.86
-2.44
-0.43
1.51
2.84
3.77
5.54
10.28
20.23
36.82
60.02
88.33
119.26
150.12
178.63
202.97
221.68
233.42
237.05
231.77
217.38
194.30
163.34
125.63
82.65
36.61
-9.38
-51.62
-86.69
-112.55
-129.40
-139.55
-146.65
-154.47
-165.81
-181.81
-201.67
-222.78
-241.19
-252.56
-253.41
-242.39
-220.97
-192.98
-163.30
-136.09
-113.63
-96.15
-82.72
-72.27
-64.21
-58.39
-54.45
-51.59
-48.59
-44.42
-38.81
-32.31
-25.98
-20.77
-16.99
-14.21
-11.62
-8.48
-4.49
0.04
4.48
8.14
10.63
12.06
12.84
13.58
14.75
16.58
19.03
21.82
24.56
26.83
28.37
29.08
29.05
28.49
27.68
26.86
26.13
25.44
24.59
23.34
21.45
18.82
15.44
11.44
6.92
1.96
-3.47
-9.47
-16.12
-23.45
-31.33
-39.48
-47.49
-54.80
-60.77
-64.71
-66.02
-64.30
-59.56
-52.27
-43.32
-33.82
-24.83
-17.13
-11.13
-6.86
-4.12
-2.68
-2.30
-2.83
-4.07
-5.70
-7.20
-7.97
-7.49
-5.45
-1.95
2.65
7.84
13.20
18.52
23.75
28.89
33.81
38.18
41.60
43.78
44.70
44.67
44.20
43.82
43.87
44.37
45.05
45.50
45.35
44.41
42.71
40.53
38.21
36.00
33.92
31.69
28.81
24.75
19.24
12.51
5.40
-0.73
-4.34
-4.28
-0.24
6.95
15.41
22.84
27.29
27.96
25.48
21.69
18.85
18.85
22.52
29.48
38.31
47.05
53.86
57.38
57.11
53.23
46.43
37.51
27.09
15.57
3.40
-8.76
-19.85
-28.65
-34.34
-36.87
-37.11
-36.41
-36.00
-36.34
-37.02
-37.08
-35.61
-32.31
-27.58
-22.45
-18.04
-15.17
-14.09
-14.51
-15.78
-17.18
-18.20
-18.61
-18.36
-17.52
-16.11
-14.15
-11.66
-8.82
-5.94
-3.40
-1.52
-0.46
-0.24
-0.76
-1.83
-3.23
-4.72
-5.98
-6.85
-7.52
-8.56
-10.93
-15.58
-23.06
-33.09
-44.51
-55.41
-63.66
-67.49
-65.97
-59.29
-48.71
-36.13
-23.62
-12.87
-4.96
-0.18
1.78
1.65
0.32
-1.27
-2.35
-2.32
-0.84
2.15
6.38
11.33
16.29
20.59
23.74
25.56
26.19
26.02
25.53
25.14
25.10
25.48
26.18
26.94
27.51
27.66
27.31
26.50
25.30
23.77
21.85
19.46
16.53
13.13
9.47
5.78
2.25
-1.05
-4.13
-7.03
-9.74
-12.23
-14.49
-16.52
-18.37
-20.07
-21.66
-23.24
-24.89
-26.64
-28.34
-29.50
-29.39
-27.26
-22.69
-15.87
-7.55
1.17
9.30
16.25
21.84
26.24
29.70
32.43
34.60
36.36
37.86
39.18
40.20
40.69
40.33
38.96
36.71
33.98
31.33
29.28
28.09
27.74
27.92
28.14
27.89
26.80
24.76
21.94
18.76
15.66
12.97
10.78
8.91
7.10
5.11
2.85
0.35
-2.25
-4.83
-7.35
-9.80
-12.21
-14.64
-17.21
-20.13
-23.57
-27.46
-31.41
-34.66
-36.30
-35.55
-32.05
-26.01
-18.11
-9.30
-0.54
7.35
13.87
18.78
22.12
24.17
25.29
25.80
25.86
25.50
24.65
23.31
21.67
20.06
18.93
18.67
19.53
21.48
24.20
27.17
29.80
31.58
32.23
31.74
30.28
28.09
25.42
22.45
19.29
16.02
12.57
8.78
4.33
-1.07
-7.50
-14.67
-22.01
-28.87
-34.77
-39.63
-43.57
-46.75
-49.08
-50.17
-49.51
-46.72
-41.84
-35.34
-27.98
-20.54
-13.61
-7.51
-2.32
1.97
5.40
8.03
9.93
11.21
11.99
12.36
12.34
11.99
11.40
10.73
10.19
9.96
10.09
10.50
11.06
11.65
12.27
12.94
13.68
14.30
14.52
14.03
12.67
10.58
8.04
5.43
2.94
0.55
-1.92
-4.66
-7.70
-10.86
-13.87
-16.54
-18.84
-20.96
-23.18
-25.81
-28.98
-32.57
-36.12
-38.87
-39.96
-38.68
-34.69
-28.26
-20.13
-11.28
-2.71
4.81
10.87
15.38
18.56
20.77
22.41
23.81
25.12
26.34
27.38
28.23
28.95
29.68
30.46
31.17
31.53
31.28
30.30
28.71
26.82
24.92
23.20
21.61
20.00
18.17
15.99
13.48
10.76
8.04
5.54
3.41
1.68
0.21
-1.24
-2.92
-4.94
-7.24
-9.54
-11.55
-13.06
-14.14
-15.09
-16.32
-18.18
-20.84
-24.22
-28.02
-31.80
-35.09
-37.43
-38.37
-37.55
-34.74
-29.96
-23.58
-16.20
-8.57
-1.42
4.74
9.61
13.15
15.46
16.79
17.45
17.75
17.99
18.37
18.93
19.63
20.29
20.80
21.08
21.14
21.00
20.67
20.14
19.44
18.62
17.73
16.81
15.80
14.60
13.14
11.46
9.71
8.13
6.90
6.00
5.27
4.44
3.27
1.65
-0.34
-2.55
-4.76
-6.79
-8.55
-9.99
-11.19
-12.26
-13.26
-14.23
-15.12
-15.85
-16.38
-16.74
-17.10
-17.67
-18.62
-20.00
-21.71
-23.39
-24.57
-24.74
-23.49
-20.65
-16.38
-11.07
-5.30
0.34
5.31
9.24
11.96
13.44
13.88
13.61
13.04
12.56
12.48
12.95
13.97
15.43
17.13
18.84
20.39
21.67
22.65
23.39
23.91
24.16
24.04
23.43
22.28
20.64
18.70
16.64
14.62
12.70
10.87
9.12
7.49
6.05
4.86
3.89
3.02
2.13
1.14
0.12
-0.88
-1.83
-2.85
-4.14
-5.91
-8.16
-10.72
-13.24
-15.35
-16.85
-17.76
-18.33
-18.91
-19.88
-21.45
-23.60
-26.04
-28.26
-29.63
-29.54
-27.64
-23.83
-18.38
-11.82
-4.90
1.60
6.95
10.72
12.80
13.44
13.14
12.46
11.82
11.42
11.25
11.18
11.13
11.07
11.03
11.08
11.29
11.66
12.13
12.62
13.04
13.24
13.17
12.76
12.09
11.17
10.04
8.69
7.11
5.39
3.67
2.24
1.32
1.00
1.13
1.38
1.42
1.02
0.21
-0.79
-1.69
-2.29
-2.52
-2.49
-2.38
-2.44
-2.85
-3.74
-5.09
-6.75
-8.51
-10.15
-11.56
-12.81
-14.05
-15.42
-16.88
-18.20
-19.01
-18.95
-17.86
-15.80
-13.06
-9.95
-6.75
-3.61
-0.64
2.03
4.19
5.70
6.52
6.79
6.79
6.78
6.88
7.05
7.16
7.08
6.81
6.53
6.45
6.69
7.19
7.71
8.02
7.97
7.64
7.23
6.97
6.93
6.93
6.67
5.88
4.56
2.98
1.58
0.67
0.31
0.30
0.31
0.13
-0.24
-0.65
-0.94
-1.09
-1.22
-1.55
-2.24
-3.33
-4.66
-6.02
-7.22
-8.16
-8.91
-9.69
-10.68
-12.00
-13.57
-15.07
-16.15
-16.48
-15.91
-14.45
-12.26
-9.51
-6.36
-3.04
0.18
2.92
4.85
5.78
5.77
5.08
4.10
3.16
2.48
2.16
2.14
2.33
2.58
2.76
2.82
2.81
2.85
3.09
3.61
4.27
4.87
5.17
5.04
4.57
4.02
3.72
3.81
4.25
4.78
5.09
4.91
4.23
3.19
2.05
1.03
0.24
-0.31
-0.71
-1.06
-1.45
-1.90
-2.39
-2.92
-3.49
-4.14
-4.83
-5.58
-6.36
-7.23
-8.22
-9.37
-10.56
-11.56
-11.98
-11.46
-9.80
-7.09
-3.74
-0.36
2.47
4.40
5.39
5.71
5.75
5.88
6.31
6.96
7.54
7.69
7.12
5.71
3.63
1.17
-1.25
-3.19
-4.30
-4.39
-3.46
-1.76
0.33
2.38
4.11
5.39
6.27
6.80
6.89
6.37
5.07
3.08
0.75
-1.39
-2.93
-3.70
-3.88
-3.77
-3.63
-3.49
-3.20
-2.55
-1.53
-0.29
0.87
1.67
1.98
1.75
1.01
-0.18
-1.82
-3.84
-6.12
-8.42
-10.46
-11.95
-12.67
-12.50
-11.50
-9.77
-7.55
-5.09
-2.65
-0.47
1.33
2.79
3.97
4.97
5.75
6.14
5.92
4.95
3.28
1.17
-0.98
-2.82
-4.18
-5.07
-5.64
-6.08
-6.51
-6.94
-7.42
-7.96
-8.60
-9.33
-10.04
-10.59
-10.80
-10.60
-10.02
-9.27
-8.60
-8.22
-8.21
-8.45
-8.73
-8.78
-8.41
-7.60
-6.42
-5.09
-3.82
-2.83
-2.25
-2.19
-2.63
-3.46
-4.46
-5.34
-5.84
-5.76
-5.05
-3.74
-1.84
0.68
3.86
7.66
11.84
15.88
19.10
20.81
20.62
18.52
14.98
10.70
6.44
2.78
0.03
-1.81
-2.86
-3.40
-3.65
-3.83
-4.11
-4.54
-5.12
-5.79
-6.41
-6.88
-7.14
-7.20
-7.13
-6.94
-6.59
-6.05
-5.26
-4.30
-3.38
-2.77
-2.71
-3.26
-4.32
-5.63
-6.91
-7.93
-8.58
-8.87
-8.85
-8.57
-8.02
-7.17
-5.89
-4.07
-1.62
1.44
4.95
8.65
12.18
15.28
17.84
19.94
21.76
23.45
24.98
26.17
26.73
26.38
25.05
22.92
20.30
17.58
15.03
12.81
10.93
9.31
7.84
6.44
5.06
3.68
2.31
1.00
-0.19
-1.21
-1.99
-2.53
-2.82
-2.88
-2.78
-2.59
-2.40
-2.28
-2.23
-2.19
-2.08
-1.79
-1.27
-0.53
0.35
1.21
1.82
1.91
1.32
-0.00
-1.92
-4.15
-6.38
-8.34
-9.87
-10.93
-11.53
-11.71
-11.62
-11.52
-11.70
-12.41
-13.61
-14.99
-16.05
-16.34
-15.63
-14.02
-11.82
-9.34
-6.80
-4.30
-1.94
0.15
1.82
3.00
3.80
4.49
5.38
6.61
8.06
9.40
10.29
10.51
10.14
9.47
8.85
8.53
8.54
8.74
8.97
9.07
9.12
9.26
9.64
10.31
11.14
11.96
12.57
12.90
12.92
12.63
12.00
10.94
9.36
7.25
4.74
1.99
-0.78
-3.47
-6.04
-8.54
-11.07
-13.74
-16.55
-19.34
-21.83
-23.65
-24.51
-24.31
-23.23
-21.61
-19.76
-17.82
-15.72
-13.31
-10.50
-7.42
-4.40
-1.85
-0.05
0.92
1.25
1.18
0.95
0.64
0.21
-0.39
-1.11
-1.79
-2.16
-2.03
-1.42
-0.48
0.47
1.16
1.41
1.24
0.71
-0.07
-0.99
-1.94
-2.78
-3.40
-3.77
-3.98
-4.25
-4.78
-5.58
-6.44
-7.02
-7.03
-6.46
-5.61
-5.02
-5.19
-6.35
-8.35
-10.71
-12.81
-14.11
-14.29
-13.26
-11.17
-8.25
-4.85
-1.31
1.97
4.65
6.48
7.49
7.85
7.92
8.00
8.23
8.49
8.52
8.11
7.22
6.09
5.07
4.43
4.24
4.40
4.72
5.09
5.46
5.84
6.18
6.36
6.32
6.00
5.48
4.89
4.30
3.75
3.19
2.58
1.90
1.15
0.27
-0.81
-2.22
-3.96
-5.91
-7.91
-9.84
-11.72
-13.68
-15.81
-18.00
-19.87
-20.86
-20.51
-18.71
-15.78
-12.30
-8.85
-5.81
-3.13
-0.61
1.95
4.55
6.99
8.98
10.31
10.95
10.99
10.63
10.01
9.24
8.42
7.70
7.26
7.22
7.62
8.33
9.13
9.82
10.27
10.44
10.38
10.12
9.64
8.83
7.65
6.15
4.52
3.01
1.84
1.04
0.43
-0.28
-1.32
-2.74
-4.42
-6.11
-7.59
-8.80
-9.93
-11.27
-13.10
-15.50
-18.22
-20.70
-22.29
-22.44
-20.91
-17.82
-13.53
-8.54
-3.33
1.68
6.15
9.74
12.22
13.50
13.71
13.20
12.38
11.57
10.91
10.41
10.05
9.88
9.97
10.40
11.07
11.74
12.12
12.05
11.56
10.83
10.10
9.47
8.90
8.28
7.52
6.61
5.61
4.57
3.52
2.43
1.29
0.15
-0.94
-1.92
-2.77
-3.53
-4.24
-4.93
-5.66
-6.54
-7.69
-9.25
-11.16
-13.21
-14.93
-15.83
-15.50
-13.84
-11.05
-7.53
-3.78
-0.20
2.98
5.67
7.88
9.57
10.69
11.20
11.14
10.72
10.26
10.07
10.25
10.70
11.12
11.24
10.90
10.23
9.51
9.05
9.00
9.26
9.58
9.66
9.36
8.71
7.85
6.92
5.97
4.89
3.53
1.85
-0.06
-1.98
-3.69
-5.07
-6.17
-7.19
-8.28
-9.52
-10.88
-12.28
-13.69
-15.14
-16.61
-17.94
-18.79
-18.67
-17.19
-14.25
-10.17
-5.55
-1.13
2.57
5.28
7.05
8.09
8.61
8.74
8.56
8.14
7.59
7.02
6.59
6.35
6.28
6.29
6.25
6.12
5.85
5.51
5.19
4.93
4.68
4.31
3.68
2.76
1.60
0.36
-0.77
-1.70
-2.43
-3.09
-3.88
-4.98
-6.50
-8.40
-10.52
-12.64
-14.54
-16.11
-17.35
-18.29
-18.93
-19.11
-18.55
-16.99
-14.33
-10.77
-6.68
-2.47
1.58
5.40
8.96
12.20
14.89
16.70
17.40
16.96
15.65
13.89
12.17
10.89
10.31
10.56
11.63
13.30
15.20
16.89
17.92
18.05
17.27
15.84
14.21
12.86
12.09
11.85
11.73
11.00
8.87
4.84
-1.04
-8.17
-15.54
-22.15
-27.32
-30.81
-32.79
-33.61
-33.65
-33.13
-32.21
-30.90
-29.19
-26.97
-24.09
-20.48
-16.20
-11.47
-6.65
-2.09
1.92
5.26
7.93
10.02
11.60
12.71
13.35
13.56
13.46
13.24
13.13
13.29
13.76
14.38
14.92
15.13
14.90
14.26
13.38
12.41
11.44
10.39
9.12
7.55
5.66
3.59
1.55
-0.23
-1.61
-2.54
-3.03
-3.21
-3.23
-3.28
-3.50
-3.98
-4.72
-5.72
-6.99
-8.58
-10.53
-12.85
-15.46
-18.17
-20.72
-22.78
-23.98
-24.04
-22.75
-20.13
-16.37
-11.86
-7.05
-2.38
1.85
5.52
8.56
10.95
12.61
13.49
13.62
13.18
12.43
11.69
11.22
11.15
11.47
12.11
13.01
14.07
15.20
16.23
16.97
17.25
17.05
16.50
15.77
14.99
14.17
13.22
12.12
10.96
9.93
9.10
8.28
7.07
5.09
2.26
-0.98
-3.81
-5.40
-5.35
-3.89
-1.81
-0.04
0.71
0.29
-1.02
-2.72
-4.40
-5.88
-7.22
-8.53
-9.90
-11.26
-12.52
-13.60
-14.57
-15.60
-16.83
-18.27
-19.65
-20.50
-20.28
-18.64
-15.54
-11.33
-6.62
-2.14
1.57
4.29
6.16
7.57
8.91
10.44
12.13
13.74
15.00
15.75
16.06
16.21
16.56
17.31
18.39
19.49
20.13
19.91
18.71
16.74
14.49
12.60
11.59
11.68
12.68
14.07
15.19
15.57
15.06
13.87
12.42
11.20
10.48
10.31
10.48
10.51
9.72
7.28
2.56
-4.58
-13.41
-22.48
-29.94
-34.25
-34.87
-32.42
-28.36
-24.37
-21.67
-20.68
-21.17
-22.52
-24.09
-25.38
-25.96
-25.49
-23.68
-20.41
-15.77
-10.18
-4.29
1.21
5.73
8.94
10.80
11.53
11.43
10.80
9.79
8.48
6.98
5.47
4.30
3.80
4.19
5.35
6.86
8.11
8.60
8.12
6.78
4.94
3.03
1.32
-0.05
-1.11
-1.88
-2.32
-2.36
-1.97
-1.28
-0.54
-0.06
-0.01
-0.41
-1.13
-1.98
-2.83
-3.67
-4.49
-5.32
-6.12
-6.82
-7.44
-8.09
-8.99
-10.36
-12.27
-14.56
-16.87
-18.67
-19.45
-18.90
-16.96
-13.89
-10.08
-6.00
-2.02
1.60
4.74
7.29
9.18
10.41
10.99
11.07
10.85
10.52
10.16
9.79
9.34
8.76
8.16
7.71
7.70
8.31
9.63
11.53
13.75
15.97
17.88
19.23
19.87
19.70
18.79
17.22
15.21
12.89
10.39
7.74
4.93
1.99
-0.93
-3.60
-5.83
-7.44
-8.44
-8.95
-9.20
-9.44
-9.88
-10.59
-11.52
-12.51
-13.38
-14.09
-14.77
-15.69
-17.16
-19.27
-21.80
-24.18
-25.75
-25.99
-24.72
-22.12
-18.62
-14.72
-10.77
-7.05
-3.73
-0.98
1.15
2.73
4.01
5.30
6.87
8.69
10.52
11.97
12.70
12.64
11.98
11.10
10.41
10.17
10.52
11.42
12.70
14.10
15.25
15.79
15.54
14.52
13.04
11.46
10.10
9.13
8.54
8.22
8.07
8.03
8.03
7.93
7.55
6.74
5.51
4.03
2.60
1.42
0.53
-0.25
-1.09
-2.06
-3.07
-3.96
-4.60
-5.03
-5.40
-5.90
-6.59
-7.48
-8.45
-9.44
-10.40
-11.33
-12.26
-13.19
-14.17
-15.29
-16.66
-18.31
-20.08
-21.60
-22.40
-22.07
-20.41
-17.55
-13.84
-9.82
-5.96
-2.54
0.33
2.74
4.78
6.54
7.98
9.04
9.68
9.95
9.97
9.88
9.80
9.80
9.90
10.13
10.51
11.08
11.80
12.53
13.01
13.06
12.57
11.68
10.62
9.70
9.05
8.59
8.08
7.25
6.06
4.66
3.42
2.69
2.67
3.32
4.34
5.31
5.86
5.78
5.03
3.80
2.34
0.87
-0.47
-1.65
-2.67
-3.48
-4.01
-4.24
-4.26
-4.27
-4.54
-5.20
-6.19
-7.30
-8.27
-8.95
-9.45
-10.04
-11.06
-12.68
-14.74
-16.80
-18.26
-18.65
-17.74
-15.67
-12.80
-9.54
-6.21
-2.96
0.13
2.96
5.30
6.92
7.71
7.83
7.69
7.68
8.04
8.69
9.33
9.73
9.87
10.01
10.50
11.50
12.84
14.13
14.90
14.94
14.35
13.50
12.77
12.35
12.12
11.70
10.70
8.91
6.34
3.36
0.45
-1.89
-3.39
-4.04
-4.03
-3.73
-3.43
-3.29
-3.29
-3.33
-3.34
-3.28
-3.26
-3.39
-3.77
-4.38
-5.10
-5.75
-6.20
-6.49
-6.82
-7.57
-9.10
-11.62
-15.01
-18.80
-22.22
-24.42
-24.74
-22.93
-19.27
-14.44
-9.32
-4.69
-0.96
1.79
3.80
5.31
6.41
6.99
6.88
5.97
4.40
2.61
1.12
0.40
0.69
1.95
3.93
6.22
8.30
9.74
10.17
9.49
7.89
5.89
4.14
3.23
3.33
4.19
5.14
5.39
4.39
2.10
-1.00
-4.10
-6.39
-7.36
-6.98
-5.61
-3.82
-2.18
-1.09
-0.81
-1.42
-2.81
-4.75
-6.90
-8.74
-9.74
-9.45
-7.75
-4.90
-1.61
1.24
2.87
2.88
1.48
-0.63
-2.52
-3.43
-3.08
-1.78
-0.29
0.53
0.05
-1.83
-4.68
-7.63
-9.70
-10.08
-8.41
-4.98
-0.63
3.47
6.15
6.69
5.00
1.73
-2.04
-5.04
-6.28
-5.21
-1.92
3.08
9.03
15.18
20.85
25.44
28.38
29.15
27.49
23.62
18.36
12.96
8.69
6.31
5.77
6.33
6.94
6.82
5.70
3.84
1.73
-0.27
-2.05
-3.68
-5.28
-6.85
-8.30
-9.52
-10.48
-11.28
-12.11
-13.08
-14.25
-15.54
-16.78
-17.69
-17.92
-17.17
-15.30
-12.48
-9.17
-6.00
-3.49
-1.84
-0.89
-0.19
0.68
1.97
3.68
5.59
7.42
8.93
9.98
10.50
10.48
9.95
9.03
7.89
6.80
6.03
5.77
6.11
7.01
8.26
9.54
10.48
10.75
10.21
8.95
7.25
5.49
4.03
3.08
2.62
2.48
2.36
1.97
1.13
-0.20
-1.94
-3.90
-5.85
-7.59
-9.02
-10.12
-10.94
-11.59
-12.12
-12.63
-13.17
-13.86
-14.76
-15.92
-17.25
-18.58
-19.64
-20.16
-19.96
-18.96
-17.21
-14.80
-11.86
-8.52
-4.94
-1.31
2.09
4.96
7.07
8.31
8.81
8.84
8.78
8.92
9.39
10.08
10.78
11.29
11.52
11.45
11.14
10.61
9.92
9.12
8.36
7.84
7.73
8.11
8.90
9.93
10.93
11.63
11.80
11.35
10.31
8.88
7.30
5.75
4.32
3.03
1.85
0.81
0.03
-0.38
-0.40
-0.17
0.05
0.02
-0.39
-1.14
-2.09
-3.12
-4.16
-5.28
-6.51
-7.82
-9.11
-10.25
-11.16
-11.82
-12.27
-12.49
-12.40
-11.77
-10.40
-8.17
-5.17
-1.72
1.78
4.92
7.43
9.20
10.28
10.74
10.65
10.11
9.27
8.29
7.36
6.61
6.01
5.52
5.04
4.51
4.07
3.89
4.21
5.16
6.65
8.40
9.97
10.90
10.92
10.00
8.43
6.64
5.08
4.00
3.42
3.16
3.04
2.90
2.69
2.41
2.05
1.58
0.98
0.28
-0.42
-0.97
-1.26
-1.30
-1.26
-1.40
-1.94
-3.01
-4.54
-6.28
-7.86
-9.00
-9.58
-9.72
-9.76
-10.08
-10.94
-12.40
-14.30
-16.41
-18.43
-20.10
-21.17
-21.44
-20.77
-19.07
-16.43
-13.11
-9.51
-6.06
-3.11
-0.77
0.99
2.34
3.40
4.23
4.82
5.13
5.20
5.15
5.10
5.13
5.20
5.20
5.00
4.63
4.23
4.03
4.19
4.73
5.52
6.30
6.82
6.90
6.46
5.53
4.25
2.89
1.77
1.11
1.00
1.29
1.66
1.78
1.49
0.84
0.01
-0.80
-1.58
-2.45
-3.58
-5.01
-6.61
-8.12
-9.32
-10.19
-10.96
-11.94
-13.34
-15.11
-16.93
-18.25
-18.59
-17.69
-15.65
-12.82
-9.70
-6.66
-3.89
-1.34
1.12
3.52
5.76
7.57
8.70
9.00
8.53
7.53
6.32
5.18
4.27
3.66
3.29
3.11
3.06
3.13
3.35
3.72
4.25
4.91
5.66
6.44
7.21
7.88
8.34
8.46
8.14
7.38
6.30
5.12
4.06
3.21
2.51
1.70
0.54
-1.09
-3.04
-4.98
-6.51
-7.36
-7.54
-7.32
-7.17
-7.48
-8.49
-10.17
-12.27
-14.42
-16.29
-17.60
-18.21
-18.02
-16.94
-14.95
-12.15
-8.86
-5.55
-2.67
-0.51
1.02
2.26
3.63
5.33
7.27
9.09
10.44
11.19
11.46
11.55
11.68
11.84
11.90
11.66
11.05
10.15
9.23
8.49
8.10
8.03
8.15
8.28
8.31
8.25
8.17
8.15
8.21
8.25
8.11
7.65
6.85
5.86
4.92
4.19
3.69
3.33
2.93
2.42
1.77
1.05
0.29
-0.51
-1.43
-2.53
-3.83
-5.26
-6.72
-8.10
-9.30
-10.26
-10.98
-11.53
-12.07
-12.82
-13.99
-15.69
-17.79
-19.91
-21.53
-22.12
-21.40
-19.40
-16.46
-13.07
-9.65
-6.49
-3.67
-1.19
0.89
2.53
3.66
4.34
4.72
5.07
5.61
6.42
7.42
8.42
9.23
9.73
9.91
9.88
9.77
9.73
9.85
10.17
10.65
11.18
11.61
11.76
11.51
10.80
9.68
8.31
6.88
5.63
4.72
4.22
4.07
4.09
4.03
3.63
2.72
1.27
-0.57
-2.57
-4.43
-5.92
-6.93
-7.49
-7.70
-7.71
-7.68
-7.70
-7.85
-8.16
-8.63
-9.25
-10.00
-10.88
-11.86
-12.92
-14.02
-15.05
-15.95
-16.73
-17.46
-18.28
-19.26
-20.32
-21.17
-21.39
-20.55
-18.49
-15.35
-11.60
-7.86
-4.65
-2.24
-0.60
0.48
1.21
1.70
1.95
2.06
2.16
2.58
3.55
5.09
6.99
8.86
10.44
11.69
12.72
13.73
14.80
15.75
16.37
16.49
16.18
15.69
15.36
15.44
15.99
16.79
17.53
17.79
17.28
15.83
13.52
10.65
7.63
4.87
2.67
1.16
0.34
0.07
0.15
0.39
0.60
0.67
0.53
0.15
-0.47
-1.30
-2.34
-3.55
-4.86
-6.23
-7.58
-8.84
-9.91
-10.75
-11.35
-11.74
-12.01
-12.27
-12.59
-13.01
-13.50
-13.98
-14.37
-14.56
-14.37
-13.60
-12.03
-9.49
-6.02
-1.93
2.27
6.04
9.04
11.21
12.77
14.01
15.20
16.46
17.77
19.10
20.41
21.62
22.60
23.21
23.37
23.21
23.03
23.29
24.30
26.02
28.02
29.63
30.25
29.61
27.80
25.09
21.75
17.83
13.27
8.17
2.89
-1.82
-5.18
-6.63
-6.18
-4.46
-2.52
-1.38
-1.70
-3.53
-6.39
-9.53
-12.20
-13.90
-14.50
-14.17
-13.28
-12.25
-11.54
-11.46
-12.20
-13.73
-15.84
-18.13
-20.21
-21.80
-22.81
-23.33
-23.47
-23.25
-22.57
-21.27
-19.16
-16.25
-12.64
-8.59
-4.39
-0.34
3.19
5.77
7.05
6.80
5.12
2.45
-0.50
-3.00
-4.53
-4.96
-4.57
-3.87
-3.40
-3.47
-4.08
-4.93
-5.51
-5.27
-3.80
-0.94
3.12
7.86
12.56
16.49
19.07
19.87
18.63
15.22
9.64
2.20
-6.33
-14.78
-21.70
-25.82
-26.39
-23.42
-17.67
-10.37
-2.91
3.38
7.43
8.58
6.61
1.78
-5.20
-13.33
-21.45
-28.45
-33.46
-35.89
-35.54
-32.58
-27.51
-21.03
-13.92
-6.95
-0.72
4.36
8.08
10.41
11.44
11.42
10.69
9.69
8.98
9.13
10.59
13.55
17.74
22.44
26.67
29.55
30.60
29.83
27.70
24.80
21.67
18.75
16.38
14.88
14.57
15.59
17.84
20.88
23.98
26.40
27.47
26.86
24.54
20.78
16.07
10.97
6.00
1.57
-2.14
-5.08
-7.26
-8.73
-9.57
-9.91
-10.02
-10.24
-10.98
-12.59
-15.21
-18.77
-22.93
-27.18
-30.92
-33.58
-34.74
-34.21
-32.01
-28.28
-23.14
-16.77
-9.41
-1.44
6.48
13.45
18.50
20.83
20.11
16.70
11.57
6.12
1.75
-0.52
-0.24
2.39
6.77
12.02
17.22
21.48
24.07
24.51
22.64
18.76
13.53
7.88
2.64
-1.64
-4.81
-7.08
-8.87
-10.63
-12.66
-15.16
-18.13
-21.40
-24.54
-27.03
-28.26
-27.79
-25.51
-21.67
-16.71
-11.10
-5.08
1.18
7.47
13.26
17.69
19.82
19.17
15.92
11.01
5.76
1.40
-1.29
-2.00
-0.77
2.18
6.60
11.99
17.56
22.23
24.89
24.79
21.87
16.87
11.06
5.81
2.10
0.23
-0.16
0.24
0.73
0.87
0.54
-0.24
-1.47
-3.22
-5.53
-8.28
-11.07
-13.32
-14.40
-13.82
-11.37
-7.08
-1.24
5.58
12.41
18.01
21.00
20.38
15.89
8.30
-0.78
-9.31
-15.43
-17.97
-16.72
-12.39
-6.40
-0.41
4.00
5.77
4.59
0.89
-4.33
-9.85
-14.61
-17.98
-19.85
-20.48
-20.34
-19.95
-19.69
-19.78
-20.29
-21.07
-21.80
-22.06
-21.43
-19.62
-16.65
-12.85
-8.69
-4.65
-0.92
2.63
6.39
10.78
15.91
21.53
27.00
31.52
34.43
35.42
34.56
32.25
29.12
25.89
23.25
21.72
21.45
22.18
23.22
23.67
22.76
20.15
16.00
10.97
5.93
1.69
-1.22
-2.71
-3.09
-3.01
-3.24
-4.37
-6.54
-9.40
-12.12
-13.76
-13.65
-11.65
-8.28
-4.49
-1.34
0.37
0.40
-0.88
-2.75
-4.44
-5.48
-5.85
-5.94
-6.22
-6.89
-7.70
-7.99
-6.98
-4.24
0.14
5.46
10.70
14.89
17.37
17.96
16.87
14.47
11.12
7.11
2.68
-1.80
-5.79
-8.64
-9.82
-9.18
-7.10
-4.40
-2.08
-0.93
-1.18
-2.51
-4.22
-5.60
-6.25
-6.24
-5.99
-5.98
-6.46
-7.26
-7.89
-7.84
-6.89
-5.35
-3.88
-3.16
-3.46
-4.39
-5.06
-4.50
-2.19
1.67
6.21
10.34
13.28
14.85
15.40
15.54
15.73
16.15
16.74
17.42
18.18
19.08
20.06
20.85
20.97
19.93
17.46
13.73
9.21
4.60
0.51
-2.62
-4.51
-5.09
-4.46
-2.96
-1.18
0.09
0.13
-1.45
-4.55
-8.57
-12.63
-15.84
-17.62
-17.74
-16.42
-14.23
-12.00
-10.60
-10.74
-12.73
-16.27
-20.51
-24.29
-26.55
-26.67
-24.69
-21.15
-16.80
-12.34
-8.25
-4.78
-2.11
-0.40
0.28
-0.02
-0.96
-2.03
-2.73
-2.70
-1.91
-0.62
0.80
2.10
3.24
4.37
5.59
6.87
7.89
8.32
7.87
6.63
4.97
3.40
2.38
2.08
2.37
2.88
3.25
3.21
2.72
1.87
0.80
-0.36
-1.59
-2.84
-4.13
-5.39
-6.57
-7.60
-8.49
-9.29
-10.06
-10.77
-11.33
-11.54
-11.25
-10.39
-9.00
-7.27
-5.37
-3.48
-1.73
-0.25
0.85
1.53
1.86
1.99
2.12
2.40
2.86
3.48
4.22
5.08
6.07
7.14
8.13
8.79
8.94
8.56
7.84
7.15
6.77
6.74
6.88
6.90
6.59
5.96
5.18
4.42
3.79
3.23
2.64
1.97
1.29
0.69
0.22
-0.17
-0.61
-1.22
-2.00
-2.84
-3.62
-4.35
-5.11
-6.14
-7.59
-9.52
-11.75
-13.97
-15.77
-16.80
-16.83
-15.87
-14.12
-11.95
-9.70
-7.61
-5.76
-4.09
-2.47
-0.88
0.65
2.03
3.18
4.02
4.53
4.71
4.64
4.47
4.36
4.48
4.86
5.36
5.69
5.60
4.92
3.74
2.39
1.32
0.96
1.48
2.71
4.25
5.53
6.13
5.83
4.75
3.18
1.45
-0.20
-1.61
-2.62
-3.11
-2.93
-2.15
-1.01
0.02
0.41
-0.19
-1.84
-4.24
-6.91
-9.32
-11.10
-12.03
-12.14
-11.49
-10.25
-8.53
-6.47
-4.22
-1.96
0.08
1.71
2.81
3.35
3.44
3.27
3.05
2.97
3.07
3.36
3.75
4.22
4.77
5.43
6.19
6.94
7.49
7.69
7.48
6.92
6.19
5.47
4.87
4.37
3.96
3.62
3.42
3.37
3.42
3.39
3.07
2.33
1.19
-0.18
-1.58
-2.88
-4.05
-5.18
-6.33
-7.47
-8.54
-9.52
-10.46
-11.49
-12.71
-14.05
-15.25
-15.96
-15.86
-14.80
-12.86
-10.25
-7.23
-4.04
-0.93
1.81
3.87
5.01
5.20
4.70
3.97
3.50
3.58
4.24
5.30
6.53
7.73
8.84
9.80
10.52
10.84
10.61
9.79
8.55
7.19
6.03
5.32
5.13
5.35
5.74
6.04
6.08
5.79
5.23
4.56
3.94
3.46
3.08
2.68
2.11
1.32
0.32
-0.77
-1.84
-2.79
-3.61
-4.34
-5.05
-5.79
-6.62
-7.53
-8.53
-9.66
-10.92
-12.34
-13.83
-15.15
-15.99
-16.04
-15.15
-13.37
-11.00
-8.43
-5.99
-3.79
-1.80
0.09
1.94
3.66
5.03
5.82
5.91
5.35
4.38
3.32
2.49
2.13
2.36
3.11
4.16
5.19
5.94
6.25
6.17
5.95
5.88
6.13
6.63
7.10
7.18
6.65
5.54
4.16
2.92
2.10
1.73
1.59
1.33
0.66
-0.50
-2.05
-3.74
-5.31
-6.57
-7.49
-8.12
-8.54
-8.85
-9.17
-9.60
-10.26
-11.16
-12.28
-13.40
-14.26
-14.55
-14.04
-12.65
-10.46
-7.72
-4.74
-1.83
0.74
2.84
4.44
5.61
6.43
7.01
7.37
7.52
7.45
7.19
6.85
6.60
6.62
7.09
7.98
9.16
10.35
11.23
11.54
11.22
10.31
9.01
7.50
5.90
4.31
2.81
1.53
0.60
0.16
0.21
0.62
1.14
1.44
1.20
0.27
-1.33
-3.36
-5.45
-7.28
-8.68
-9.72
-10.65
-11.73
-13.10
-14.72
-16.39
-17.88
-19.02
-19.72
-19.89
-19.43
-18.14
-15.91
-12.84
-9.23
-5.58
-2.42
-0.11
1.32
2.07
2.47
2.81
3.25
3.82
4.50
5.28
6.15
7.10
8.09
9.06
9.93
10.68
11.27
11.68
11.86
11.71
11.20
10.40
9.42
8.42
7.49
6.71
6.10
5.73
5.66
5.94
6.51
7.11
7.40
7.04
5.93
4.18
2.16
0.22
-1.40
-2.74
-4.00
-5.41
-7.07
-8.92
-10.73
-12.24
-13.32
-13.96
-14.38
-14.91
-15.85
-17.34
-19.27
-21.30
-22.87
-23.42
-22.57
-20.27
-16.80
-12.68
-8.48
-4.67
-1.54
0.87
2.64
3.99
5.15
6.28
7.47
8.68
9.88
11.02
12.09
13.11
14.06
14.91
15.51
15.74
15.53
14.92
14.09
13.34
12.88
12.84
13.14
13.57
13.88
13.87
13.53
12.93
12.23
11.53
10.84
10.07
9.13
8.01
6.77
5.53
4.44
3.57
2.94
2.44
1.91
1.09
-0.22
-2.11
-4.47
-7.00
-9.35
-11.24
-12.54
-13.38
-14.00
-14.67
-15.65
-17.04
-18.84
-20.84
-22.69
-23.94
-24.21
-23.31
-21.33
-18.56
-15.36
-12.03
-8.73
-5.53
-2.51
0.25
2.60
4.47
5.92
7.12
8.26
9.44
10.66
11.81
12.79
13.55
14.12
14.58
15.00
15.41
15.77
15.99
16.03
15.84
15.45
14.93
14.34
13.72
13.04
12.22
11.17
9.85
8.36
6.84
5.50
4.43
3.55
2.68
1.64
0.35
-1.12
-2.59
-3.96
-5.19
-6.38
-7.66
-9.02
-10.35
-11.49
-12.39
-13.21
-14.26
-15.83
-17.98
-20.42
-22.65
-24.13
-24.50
-23.63
-21.64
-18.69
-14.96
-10.60
-5.84
-1.02
3.47
7.29
10.22
12.26
13.49
14.04
14.03
13.59
12.89
12.20
11.77
11.79
12.30
13.21
14.36
15.54
16.54
17.14
17.20
16.67
15.65
14.41
13.26
12.39
11.81
11.30
10.61
9.58
8.20
6.63
5.08
3.67
2.46
1.44
0.57
-0.17
-0.80
-1.37
-1.90
-2.29
-2.40
-2.02
-1.05
0.44
2.19
3.79
4.88
5.31
5.15
4.54
3.56
2.05
-0.26
-3.56
-7.72
-12.18
-15.99
-18.17
-18.00
-15.21
-10.10
-3.44
3.76
10.53
16.20
20.61
24.06
27.16
30.45
34.10
37.90
41.35
44.07
45.89
46.92
47.33
47.08
45.99
43.82
40.48
36.14
31.19
26.04
20.99
16.17
11.60
7.38
3.67
0.62
-1.71
-3.45
-4.79
-5.92
-6.86
-7.53
-7.84
-7.83
-7.72
-7.77
-8.15
-8.80
-9.48
-9.96
-10.24
-10.65
-11.65
-13.65
-16.71
-20.50
-24.44
-27.92
-30.55
-32.23
-33.17
-33.80
-34.68
-36.42
-39.41
-43.62
-48.36
-52.39
-54.16
-52.38
-46.60
-37.43
-26.53
-16.03
-8.00
-3.79
-3.70
-7.03
-12.26
-17.54
-21.18
-22.02
-19.69
-14.59
-7.71
-0.31
6.36
11.36
14.20
14.87
13.70
11.37
8.65
6.30
4.91
4.83
6.08
8.37
11.24
14.08
16.37
17.75
18.11
17.59
16.50
15.23
14.08
13.25
12.79
12.66
12.70
12.79
12.77
12.43
11.53
9.77
6.94
3.02
-1.66
-6.49
-10.67
-13.51
-14.68
-14.42
-13.49
-12.88
-13.51
-15.82
-19.59
-24.03
-27.99
-30.46
-30.77
-28.84
-25.05
-20.05
-14.48
-8.82
-3.42
1.48
5.60
8.70
10.58
11.28
11.04
10.29
9.40
8.60
7.95
7.42
7.01
6.81
6.98
7.63
8.71
9.95
10.97
11.47
11.30
10.57
9.58
8.64
7.96
7.62
7.51
7.44
7.27
6.93
6.42
5.77
4.94
3.88
2.54
0.89
-0.93
-2.71
-4.23
-5.37
-6.20
-6.95
-7.90
-9.29
-11.17
-13.47
-16.04
-18.69
-21.20
-23.29
-24.67
-24.98
-23.99
-21.64
-18.11
-13.77
-9.09
-4.47
-0.17
3.65
6.96
9.68
11.77
13.22
14.00
14.24
14.08
13.70
13.25
12.87
12.59
12.45
12.42
12.46
12.56
12.70
12.87
13.09
13.28
13.36
13.24
12.85
12.14
11.15
9.94
8.57
7.10
5.58
4.12
2.82
1.83
1.16
0.73
0.28
-0.48
-1.70
-3.38
-5.33
-7.24
-8.84
-9.96
-10.59
-10.89
-11.09
-11.47
-12.29
-13.65
-15.49
-17.52
-19.28
-20.27
-20.15
-18.81
-16.39
-13.20
-9.58
-5.86
-2.33
0.78
3.30
5.18
6.45
7.25
7.76
8.12
8.36
8.44
8.33
8.03
7.59
7.09
6.63
6.28
6.14
6.25
6.64
7.21
7.76
8.05
7.88
7.20
6.08
4.77
3.52
2.50
1.78
1.27
0.79
0.14
-0.80
-2.05
-3.49
-4.89
-6.04
-6.86
-7.45
-8.13
-9.22
-10.96
-13.28
-15.90
-18.30
-19.94
-20.44
-19.69
-17.86
-15.34
-12.54
-9.78
-7.20
-4.83
-2.65
-0.72
0.83
1.85
2.32
2.41
2.37
2.48
2.87
3.51
4.26
4.94
5.41
5.53
5.18
4.30
2.93
1.33
-0.18
-1.34
-2.10
-2.73
-3.67
-5.32
-7.81
-10.82
-13.70
-15.67
-16.19
-15.29
-13.55
-12.02
-11.77
-13.48
-17.06
-21.65
-25.89
-28.43
-28.50
-26.18
-22.38
-18.52
-15.81
-14.81
-15.28
-16.37
-17.27
-17.71
-18.26
-20.01
-24.04
-30.73
-39.57
-49.34
-58.64
-66.55
-72.96
-78.75
-85.60
-95.54
-110.25
-130.31
-154.60
-180.14
-202.62
-217.55
-221.57
-213.42
-194.16
-166.47
-133.62
-98.27
-61.99
-25.05
13.06
52.82
93.80
134.03
170.07
197.87
214.12
217.68
210.13
195.26
177.67
161.22
147.84
137.64
129.59
122.76
116.99
112.98
111.63
113.36
117.56
122.75
127.16
129.49
129.50
127.98
126.16
124.85
123.82
121.99
118.05
111.37
102.40
92.45
82.87
74.30
66.37
58.06
48.27
36.39
22.51
7.32
-8.10
-22.57
-34.97
-44.44
-50.50
-53.10
-52.57
-49.40
-44.10
-37.16
-29.11
-20.71
-12.85
-6.34
-1.70
1.13
2.72
3.95
5.64
8.40
12.37
17.25
22.41
27.02
30.34
31.97
31.91
30.48
28.10
24.97
21.02
16.01
9.80
2.60
-4.96
-12.04
-17.88
-22.08
-24.77
-26.44
-27.77
-29.28
-31.14
-33.05
-34.26
-33.86
-31.03
-25.28
-16.67
-5.68
6.72
19.19
30.08
37.56
40.06
36.79
28.03
15.11
-0.20
-16.33
-32.25
-47.39
-61.25
-72.93
-81.30
-85.39
-84.96
-80.72
-73.97
-65.99
-57.55
-48.71
-39.17
-28.65
-17.34
-6.02
3.97
10.98
13.52
10.77
3.11
-7.68
-18.77
-27.12
-30.43
-27.86
-20.27
-9.69
1.47
11.14
18.03
21.51
21.41
17.71
10.66
1.12
-9.02
-16.97
-19.75
-15.30
-3.55
13.29
31.32
46.25
54.55
54.12
44.11
24.52
-3.92
-39.46
-78.75
-116.91
-148.43
-168.69
-175.15
-167.56
-147.07
-115.00
-72.38
-20.49
37.90
97.80
152.73
196.74
226.61
242.93
249.37
250.42
249.30
246.76
241.59
232.08
217.47
198.38
176.28
152.57
127.70
101.12
71.75
38.71
1.76
-38.63
-81.48
-125.60
-169.60
-211.59
-248.71
-277.24
-293.51
-295.65
-284.90
-265.91
-245.02
-227.64
-216.04
-208.86
-202.65
-194.46
-183.65
-171.94
-161.89
-154.67
-148.97
-141.43
-128.25
-107.06
-77.83
-42.72
-5.14
31.31
63.50
89.14
106.84
116.11
117.36
111.77
101.10
87.41
72.77
59.02
47.48
38.77
32.70
28.40
24.63
20.24
14.59
7.78
0.68
-5.45
-9.40
-10.43
-8.47
-3.99
2.27
9.53
17.28
25.37
34.09
43.94
55.34
68.14
81.33
93.04
101.01
103.37
99.28
89.16
74.49
57.15
38.89
20.99
4.21
-10.98
-24.26
-35.37
-44.18
-50.71
-55.16
-57.78
-58.79
-58.31
-56.31
-52.74
-47.63
-41.29
-34.30
-27.44
-21.46
-16.79
-13.43
-10.96
-8.82
-6.51
-3.80
-0.73
2.46
5.55
8.36
10.79
12.87
14.65
16.25
17.78
19.36
21.03
22.76
24.41
25.81
26.82
27.31
27.19
26.40
24.95
22.94
20.62
18.31
16.31
14.81
13.80
13.03
12.15
10.83
8.94
6.61
4.16
1.99
0.30
-0.99
-2.21
-3.74
-5.84
-8.43
-11.15
-13.56
-15.25
-16.08
-16.17
-15.85
-15.58
-15.88
-17.21
-19.81
-23.46
-27.42
-30.45
-31.17
-28.47
-22.01
-12.43
-1.24
9.66
18.59
24.54
27.32
27.31
25.19
21.64
17.24
12.59
8.34
5.18
3.63
3.87
5.69
8.54
11.84
15.21
18.52
21.87
25.38
29.14
33.08
36.99
40.54
43.27
44.78
44.91
43.95
42.71
42.30
43.71
47.34
52.84
59.15
64.85
68.55
69.38
67.23
63.03
58.57
56.05
57.24
62.49
70.06
76.21
76.12
65.38
41.55
5.21
-39.95
-88.02
-132.28
-166.75
-187.41
-192.73
-183.71
-163.14
-134.76
-102.29
-68.96
-37.28
-9.17
13.86
30.62
40.32
42.83
38.95
30.52
20.21
11.02
5.65
5.80
11.90
23.11
37.66
53.30
67.79
79.28
86.53
89.07
87.19
81.85
74.46
66.53
59.32
53.74
50.18
48.52
48.02
47.45
45.34
40.53
32.60
22.15
10.42
-1.24
-12.08
-22.17
-32.12
-42.44
-52.99
-62.71
-69.87
-72.70
-70.06
-61.99
-49.83
-35.95
-23.18
-13.99
-9.84
-10.81
-15.74
-22.82
-30.26
-36.82
-41.97
-45.69
-48.06
-49.02
-48.34
-45.84
-41.69
-36.48
-31.08
-26.37
-22.83
-20.44
-18.87
-17.85
-17.40
-17.81
-19.31
-21.71
-24.18
-25.57
-24.83
-21.64
-16.59
-10.90
-5.85
-2.28
-0.30
0.49
0.68
0.70
0.72
0.78
0.93
1.28
1.96
3.04
4.41
5.88
7.25
8.38
9.21
9.71
9.92
9.92
9.98
10.38
11.24
12.35
13.13
12.90
11.29
8.51
5.34
2.72
1.22
0.74
0.58
-0.20
-2.16
-5.28
-8.97
-12.44
-15.08
-16.68
-17.37
-17.47
-17.41
-17.56
-18.36
-20.07
-22.63
-25.47
-27.56
-27.74
-25.26
-20.25
-13.68
-7.02
-1.57
2.01
3.96
5.20
7.01
10.64
17.04
26.63
38.91
52.43
64.82
73.39
76.01
71.82
61.57
47.30
31.62
16.96
5.03
-3.35
-8.22
-10.25
-10.52
-10.28
-10.60
-12.12
-14.85
-18.33
-21.88
-24.84
-26.80
-27.58
-27.10
-25.36
-22.45
-18.68
-14.50
-10.55
-7.38
-5.29
-4.25
-3.85
-3.53
-2.79
-1.41
0.45
2.36
3.81
4.43
4.11
2.99
1.29
-0.83
-3.28
-6.02
-8.94
-11.78
-14.24
-16.11
-17.40
-18.39
-19.42
-20.70
-22.07
-23.08
-23.10
-21.63
-18.54
-14.17
-9.20
-4.38
-0.36
2.55
4.32
5.13
5.21
4.78
4.02
3.11
2.13
1.06
-0.28
-2.16
-4.77
-8.02
-11.43
-14.30
-15.92
-15.89
-14.25
-11.34
-7.67
-3.63
0.60
4.87
9.07
12.88
15.70
16.80
15.46
11.26
4.41
-4.12
-12.62
-19.07
-21.70
-19.55
-12.65
-1.85
11.57
26.28
41.08
54.85
66.48
74.92
79.50
80.17
77.68
73.29
68.23
63.22
58.13
52.25
44.71
35.02
23.41
10.75
-1.69
-12.65
-21.24
-27.06
-30.21
-31.12
-30.41
-28.74
-26.76
-25.01
-23.85
-23.41
-23.57
-24.02
-24.36
-24.29
-23.63
-22.42
-20.79
-18.95
-17.08
-15.26
-13.60
-12.11
-10.75
-9.37
-7.82
-6.00
-3.98
-1.88
0.16
2.11
4.04
5.99
7.84
9.32
10.10
10.02
9.23
8.09
7.02
6.29
5.88
5.59
5.16
4.51
3.66
2.69
1.76
0.95
0.42
0.37
1.01
2.42
4.39
6.39
7.69
7.64
5.90
2.68
-1.45
-5.74
-9.62
-12.92
-15.84
-18.72
-21.79
-25.00
-28.02
-30.41
-31.76
-31.84
-30.61
-28.19
-24.85
-20.97
-17.07
-13.66
-11.15
-9.66
-8.91
-8.36
-7.44
-5.82
-3.48
-0.76
2.00
4.59
6.95
9.14
11.10
12.63
13.43
13.35
12.57
11.63
11.11
11.38
12.34
13.51
14.32
14.38
13.68
12.45
11.02
9.58
8.17
6.73
5.25
3.76
2.32
0.88
-0.74
-2.70
-5.05
-7.66
-10.21
-12.46
-14.35
-16.02
-17.70
-19.64
-21.91
-24.50
-27.36
-30.39
-33.42
-36.02
-37.60
-37.62
-35.86
-32.64
-28.71
-24.97
-22.11
-20.53
-20.27
-21.17
-22.80
-24.42
-24.94
-23.16
-18.36
-10.79
-1.85
6.39
11.99
14.06
13.07
10.52
8.23
7.65
9.52
13.89
20.40
28.55
37.78
47.49
57.06
65.89
73.36
78.95
82.13
82.56
80.28
75.86
70.31
64.74
59.86
55.69
51.75
47.50
42.91
38.68
35.84
35.22
36.82
39.68
42.22
42.83
40.43
34.91
27.05
18.30
10.43
5.03
3.11
4.85
9.56
15.90
22.38
27.88
32.06
35.47
39.33
45.11
54.04
66.82
83.44
103.23
124.87
146.47
165.66
179.90
187.10
186.11
177.00
160.90
139.22
112.83
81.76
45.69
4.87
-39.03
-82.91
-123.25
-157.30
-184.09
-204.43
-219.98
-232.09
-241.03
-246.00
-245.99
-240.61
-230.61
-217.72
-203.82
-190.19
-177.13
-164.08
-150.10
-134.62
-117.80
-100.56
-84.24
-69.97
-58.31
-49.19
-42.26
-37.15
-33.74
-31.99
-31.68
-32.06
-31.99
-30.27
-26.18
-19.89
-12.41
-5.25
0.24
3.40
4.44
4.26
4.01
4.58
6.38
9.28
12.77
16.30
19.43
21.89
23.57
24.42
24.43
23.60
21.99
19.66
16.66
12.98
8.57
3.50
-1.95
-7.33
-12.06
-15.71
-18.12
-19.35
-19.46
-18.26
-15.30
-10.07
-2.43
7.15
17.54
27.33
35.34
40.97
44.38
46.20
47.17
47.70
47.89
47.54
46.59
45.13
43.53
42.11
40.94
39.64
37.54
34.00
28.88
22.69
16.43
11.10
7.24
4.71
2.90
1.10
-0.95
-2.99
-4.37
-4.55
-3.38
-1.28
0.96
2.56
3.05
2.42
0.96
-0.87
-2.74
-4.50
-6.15
-7.63
-8.77
-9.28
-8.97
-7.87
-6.32
-4.83
-3.77
-3.22
-2.95
-2.56
-1.82
-0.77
0.27
0.81
0.50
-0.77
-2.80
-5.02
-6.66
-6.88
-5.00
-0.84
5.09
11.73
17.79
22.19
24.49
24.89
23.95
22.20
19.78
16.57
12.49
7.94
3.80
1.18
0.79
2.43
4.98
6.83
6.63
3.87
-0.96
-6.63
-11.75
-15.34
-17.02
-16.91
-15.37
-12.74
-9.29
-5.40
-1.58
1.43
2.95
2.61
0.57
-2.48
-5.50
-7.56
-8.08
-7.02
-4.75
-1.85
1.20
4.08
6.68
8.98
11.00
12.72
14.19
15.45
16.63
17.87
19.27
20.73
22.06
22.89
22.86
21.76
19.56
16.49
12.88
9.11
5.54
2.48
0.12
-1.40
-2.16
-2.38
-2.38
-2.53
-3.12
-4.29
-6.04
-8.26
-10.84
-13.67
-16.65
-19.64
-22.44
-24.86
-26.83
-28.38
-29.71
-31.02
-32.43
-33.88
-35.04
-35.47
-34.68
-32.35
-28.55
-23.63
-18.22
-12.91
-8.15
-4.08
-0.63
2.42
5.31
8.21
11.22
14.42
17.87
21.55
25.38
29.06
32.23
34.51
35.74
36.05
35.86
35.71
36.06
37.04
38.40
39.63
40.16
39.66
38.14
35.96
33.53
31.23
29.21
27.47
25.97
24.69
23.64
22.74
21.77
20.30
17.92
14.52
10.40
6.26
2.89
0.80
-0.03
-0.08
-0.06
-0.54
-1.65
-3.16
-4.67
-5.93
-6.98
-8.17
-9.87
-12.33
-15.53
-19.22
-23.03
-26.59
-29.64
-32.06
-33.77
-34.71
-34.77
-33.78
-31.64
-28.42
-24.36
-19.96
-15.83
-12.59
-10.71
-10.41
-11.54
-13.59
-15.72
-16.92
-16.32
-13.46
-8.44
-1.94
5.03
11.49
16.84
20.92
23.94
26.22
27.94
29.12
29.67
29.57
28.95
28.16
27.52
27.26
27.30
27.30
26.82
25.49
23.26
20.36
17.24
14.35
11.96
10.05
8.39
6.67
4.65
2.25
-0.48
-3.43
-6.50
-9.58
-12.50
-15.00
-16.87
-17.95
-18.40
-18.54
-18.84
-19.67
-21.19
-23.25
-25.55
-27.65
-29.16
-29.75
-29.25
-27.61
-24.89
-21.25
-16.92
-12.16
-7.33
-2.80
1.07
3.94
5.64
6.23
6.06
5.63
5.50
5.99
7.16
8.73
10.22
11.23
11.59
11.45
11.23
11.50
12.86
15.75
20.21
25.77
31.33
35.31
36.17
33.00
26.11
16.97
7.71
0.34
-4.06
-5.53
-4.99
-3.62
-2.34
-1.61
-1.44
-1.71
-2.29
-3.09
-4.00
-4.91
-5.68
-6.21
-6.53
-6.81
-7.29
-8.18
-9.58
-11.49
-13.75
-16.16
-18.52
-20.70
-22.66
-24.37
-25.73
-26.53
-26.49
-25.38
-23.15
-19.94
-16.05
-11.81
-7.50
-3.27
0.71
4.23
7.04
8.95
9.95
10.20
10.10
10.00
10.11
10.40
10.70
10.79
10.56
10.11
9.62
9.30
9.25
9.43
9.71
9.96
10.13
10.21
10.20
10.01
9.56
8.79
7.81
6.87
6.20
5.84
5.54
4.84
3.35
1.03
-1.72
-4.26
-6.00
-6.78
-6.97
-7.36
-8.80
-11.84
-16.51
-22.23
-28.06
-33.05
-36.65
-39.00
-40.92
-43.65
-48.23
-54.99
-63.33
-71.93
-79.29
-84.56
-87.91
-90.62
-94.41
-100.59
-109.30
-119.26
-128.15
-133.29
-132.60
-125.20
-111.85
-95.09
-79.02
-68.64
-68.40
-80.27
-102.09
-127.32
-146.40
-150.11
-133.02
-95.59
-43.98
12.54
65.10
107.91
139.20
160.27
173.59
181.14
183.85
181.86
175.32
165.03
152.66
140.54
131.22
126.86
128.67
136.50
148.68
162.45
174.68
182.78
185.27
181.97
173.50
160.78
144.51
125.12
103.21
79.96
57.16
36.83
20.50
8.53
0.07
-6.63
-13.36
-21.28
-30.56
-40.56
-50.20
-58.36
-64.25
-67.56
-68.41
-67.19
-64.43
-60.60
-56.05
-50.94
-45.36
-39.51
-33.80
-28.77
-24.89
-22.38
-21.00
-20.18
-19.23
-17.60
-15.07
-11.78
-8.10
-4.47
-1.26
1.31
3.22
4.61
5.70
6.66
7.64
8.57
9.31
9.69
9.63
9.29
8.89
8.67
8.69
8.88
9.06
9.03
8.71
8.08
7.15
5.92
4.44
2.81
1.23
-0.13
-1.23
-2.22
-3.39
-4.97
-6.95
-9.09
-11.04
-12.62
-13.89
-15.17
-16.76
-18.82
-21.25
-23.78
-26.15
-28.18
-29.84
-31.09
-31.78
-31.63
-30.36
-27.72
-23.74
-18.71
-13.20
-7.89
-3.34
0.13
2.57
4.31
5.77
7.21
8.63
9.84
10.58
10.81
10.77
10.87
11.53
12.89
14.73
16.57
17.91
18.45
18.22
17.53
16.77
16.21
15.91
15.70
15.34
14.66
13.64
12.45
11.28
10.32
9.58
8.96
8.28
7.40
6.31
5.12
3.97
2.98
2.06
1.05
-0.27
-1.96
-3.93
-5.87
-7.51
-8.74
-9.68
-10.64
-11.88
-13.47
-15.31
-17.17
-18.94
-20.78
-22.98
-25.73
-28.91
-31.93
-33.91
-34.05
-31.96
-27.83
-22.31
-16.23
-10.29
-4.92
-0.30
3.47
6.34
8.33
9.53
10.24
10.79
11.49
12.44
13.52
14.46
15.03
15.13
14.90
14.58
14.43
14.62
15.13
15.85
16.60
17.18
17.48
17.48
17.23
16.80
16.18
15.35
14.28
13.05
11.80
10.73
9.95
9.39
8.82
7.98
6.73
5.15
3.47
2.00
0.90
0.17
-0.32
-0.72
-1.17
-1.80
-2.74
-4.09
-5.97
-8.33
-10.97
-13.59
-15.84
-17.55
-18.76
-19.76
-20.81
-22.06
-23.40
-24.45
-24.76
-23.99
-22.06
-19.18
-15.71
-11.99
-8.23
-4.53
-0.96
2.34
5.18
7.36
8.76
9.46
9.65
9.63
9.67
9.93
10.43
11.10
11.78
12.30
12.57
12.56
12.35
12.05
11.82
11.75
11.90
12.25
12.71
13.18
13.51
13.54
13.14
12.23
10.83
9.09
7.23
5.50
4.06
2.88
1.75
0.40
-1.38
-3.54
-5.87
-8.02
-9.79
-11.14
-12.23
-13.23
-14.30
-15.54
-17.02
-18.86
-21.18
-23.96
-26.86
-29.29
-30.51
-29.92
-27.34
-23.02
-17.61
-11.92
-6.67
-2.31
0.98
3.32
4.96
6.18
7.16
7.93
8.48
8.78
8.96
9.21
9.80
10.88
12.39
14.10
15.69
16.88
17.51
17.54
17.07
16.27
15.35
14.54
13.98
13.68
13.49
13.19
12.56
11.53
10.15
8.58
6.93
5.24
3.46
1.63
-0.15
-1.73
-2.98
-3.95
-4.80
-5.76
-7.01
-8.57
-10.32
-12.09
-13.77
-15.43
-17.23
-19.36
-21.90
-24.71
-27.42
-29.45
-30.20
-29.25
-26.51
-22.34
-17.40
-12.49
-8.21
-4.83
-2.28
-0.26
1.56
3.38
5.22
6.99
8.56
9.90
11.04
12.06
12.98
13.76
14.32
14.60
14.65
14.62
14.74
15.18
16.01
17.13
18.35
19.40
20.03
20.10
19.57
18.56
17.26
15.89
14.60
13.38
12.09
10.56
8.76
6.79
4.88
3.20
1.85
0.71
-0.41
-1.66
-3.10
-4.60
-6.04
-7.35
-8.60
-9.90
-11.34
-12.90
-14.47
-15.99
-17.47
-19.09
-21.11
-23.69
-26.77
-29.95
-32.63
-34.13
-33.97
-32.02
-28.52
-23.94
-18.78
-13.45
-8.19
-3.15
1.59
5.95
9.83
13.10
15.68
17.45
18.36
18.48
17.99
17.24
16.64
16.55
17.06
18.03
19.06
19.77
19.91
19.47
18.62
17.56
16.41
15.18
13.82
12.29
10.64
9.06
7.71
6.76
6.28
6.25
6.49
6.76
6.75
6.22
5.06
3.32
1.22
-1.01
-3.26
-5.48
-7.70
-9.88
-11.90
-13.55
-14.69
-15.30
-15.53
-15.68
-16.00
-16.67
-17.76
-19.27
-21.17
-23.40
-25.73
-27.77
-29.01
-28.87
-26.95
-23.18
-17.88
-11.67
-5.32
0.48
5.23
8.69
10.84
11.82
11.98
11.82
11.99
13.15
15.71
19.61
24.18
28.28
30.64
30.35
27.28
22.09
16.00
10.33
6.09
3.79
3.46
4.79
7.33
10.53
13.73
16.25
17.45
17.00
14.94
11.70
8.00
4.55
1.85
0.06
-0.98
-1.64
-2.27
-2.96
-3.51
-3.52
-2.64
-0.89
1.26
3.04
3.63
2.59
-0.06
-3.89
-8.28
-12.73
-16.95
-20.84
-24.37
-27.48
-29.96
-31.53
-31.91
-30.96
-28.70
-25.42
-21.55
-17.49
-13.48
-9.39
-4.90
0.27
6.14
12.25
17.72
21.57
23.02
21.84
18.45
13.73
8.78
4.53
1.60
0.24
0.49
2.33
5.74
10.52
16.13
21.61
25.68
27.22
25.77
21.78
16.55
11.70
8.58
7.73
8.85
11.09
13.48
15.29
16.09
15.75
14.28
11.79
8.57
5.02
1.62
-1.27
-3.48
-5.13
-6.41
-7.58
-8.74
-9.90
-11.03
-12.20
-13.55
-15.25
-17.42
-20.10
-23.16
-26.43
-29.68
-32.67
-35.08
-36.56
-36.76
-35.38
-32.28
-27.57
-21.63
-15.03
-8.46
-2.58
2.11
5.36
7.19
7.96
8.25
8.66
9.57
11.06
12.81
14.31
15.07
14.85
13.74
12.07
10.26
8.69
7.60
7.10
7.24
8.02
9.31
10.90
12.42
13.51
13.86
13.40
12.24
10.73
9.19
7.85
6.74
5.75
4.79
3.87
3.14
2.79
2.86
3.21
3.45
3.15
1.99
-0.10
-2.94
-6.17
-9.41
-12.40
-15.03
-17.35
-19.48
-21.58
-23.77
-26.04
-28.22
-30.01
-31.04
-30.93
-29.44
-26.50
-22.25
-17.02
-11.26
-5.44
-0.01
4.69
8.49
11.35
13.32
14.57
15.28
15.65
15.87
16.07
16.33
16.60
16.73
16.58
16.11
15.51
15.10
15.23
16.02
17.29
18.62
19.55
19.79
19.34
18.40
17.16
15.72
14.02
12.02
9.73
7.31
4.99
2.96
1.28
-0.05
-1.15
-2.11
-3.04
-4.03
-5.18
-6.56
-8.16
-9.90
-11.66
-13.29
-14.75
-16.02
-17.11
-18.10
-19.05
-20.09
-21.30
-22.75
-24.39
-26.04
-27.41
-28.15
-27.94
-26.64
-24.30
-21.16
-17.57
-13.87
-10.30
-6.91
-3.63
-0.27
3.27
6.98
10.66
13.98
16.55
18.06
18.42
17.73
16.40
14.91
13.75
13.22
13.36
13.96
14.67
15.20
15.41
15.40
15.38
15.54
15.84
16.06
15.83
14.85
13.06
10.61
7.84
5.08
2.56
0.33
-1.63
-3.34
-4.72
-5.68
-6.16
-6.25
-6.21
-6.45
-7.31
-9.04
-11.57
-14.65
-17.94
-21.13
-24.06
-26.65
-28.81
-30.29
-30.71
-29.67
-26.98
-22.78
-17.53
-11.92
-6.56
-1.92
1.80
4.60
6.60
7.98
8.90
9.54
10.02
10.42
10.72
10.88
10.85
10.65
10.37
10.21
10.32
10.78
11.58
12.57
13.55
14.32
14.69
14.57
13.93
12.80
11.32
9.67
8.03
6.61
5.48
4.66
4.06
3.51
2.86
1.98
0.82
-0.59
-2.18
-3.84
-5.51
-7.14
-8.74
-10.29
-11.80
-13.28
-14.80
-16.50
-18.56
-21.04
-23.81
-26.45
-28.44
-29.24
-28.56
-26.47
-23.29
-19.49
-15.51
-11.61
-7.93
-4.53
-1.48
1.06
2.90
3.82
3.76
2.81
1.29
-0.40
-1.82
-2.65
-2.80
-2.35
-1.57
-0.79
-0.29
-0.15
-0.12
0.35
2.02
5.58
11.39
19.16
27.95
36.42
43.11
46.90
47.23
44.23
38.64
31.59
24.27
17.70
12.53
8.87
6.45
4.78
3.36
1.88
0.23
-1.59
-3.55
-5.63
-7.90
-10.38
-13.03
-15.76
-18.44
-20.80
-22.55
-23.30
-22.71
-20.59
-17.02
-12.36
-7.17
-2.05
2.47
6.10
8.71
10.42
11.45
12.15
12.85
13.85
15.33
17.31
19.64
22.07
24.28
26.00
27.08
27.62
27.89
28.28
29.07
30.25
31.46
32.07
31.44
29.21
25.50
20.85
16.19
12.37
9.97
9.06
9.31
10.15
11.12
12.04
12.99
14.17
15.58
16.79
16.93
15.04
10.41
2.98
-6.59
-17.17
-27.49
-36.58
-43.99
-49.83
-54.53
-58.59
-62.32
-65.69
-68.38
-69.88
-69.67
-67.37
-62.85
-56.27
-48.17
-39.34
-30.73
-23.29
-17.75
-14.45
-13.28
-13.74
-15.11
-16.66
-17.83
-18.24
-17.72
-16.29
-14.09
-11.37
-8.50
-5.85
-3.75
-2.32
-1.40
-0.68
0.23
1.52
3.17
4.92
6.50
7.72
8.60
9.33
10.11
11.06
12.14
13.21
14.08
14.60
14.67
14.18
12.98
10.95
8.08
4.49
0.50
-3.45
-6.88
-9.37
-10.78
-11.17
-10.77
-9.87
-8.68
-7.25
-5.47
-3.23
-0.50
2.55
5.61
8.35
10.50
11.86
12.41
12.18
11.35
10.23
9.20
8.61
8.65
9.26
10.21
11.15
11.77
11.84
11.29
10.11
8.42
6.45
4.54
3.06
2.24
2.12
2.51
3.09
3.56
3.73
3.60
3.18
2.57
1.81
0.97
0.15
-0.56
-1.14
-1.60
-2.12
-2.91
-4.13
-5.81
-7.80
-9.76
-11.37
-12.36
-12.66
-12.42
-11.97
-11.68
-11.88
-12.73
-14.15
-15.82
-17.30
-18.13
-17.95
-16.64
-14.29
-11.15
-7.52
-3.60
0.50
4.70
8.86
12.66
15.72
17.69
18.45
18.16
17.27
16.26
15.54
15.27
15.40
15.76
16.20
16.64
17.12
17.62
18.06
18.32
18.24
17.75
16.86
15.75
14.57
13.47
12.44
11.45
10.35
9.06
7.54
5.82
4.05
2.41
1.06
0.05
-0.68
-1.36
-2.22
-3.36
-4.75
-6.25
-7.76
-9.28
-10.91
-12.79
-14.95
-17.31
-19.63
-21.67
-23.20
-24.01
-23.86
-22.53
-19.90
-16.03
-11.26
-6.13
-1.31
2.68
5.51
7.17
7.81
7.77
7.38
6.91
6.57
6.41
6.44
6.64
7.02
7.57
8.30
9.14
9.93
10.51
10.75
10.64
10.28
9.84
9.46
9.16
8.85
8.43
7.80
7.01
6.18
5.39
4.65
3.84
2.82
1.49
-0.14
-1.94
-3.77
-5.48
-7.01
-8.37
-9.62
-10.87
-12.28
-14.04
-16.25
-18.89
-21.71
-24.22
-25.86
-26.14
-24.84
-22.04
-18.10
-13.52
-8.78
-4.27
-0.29
3.03
5.56
7.33
8.44
9.07
9.50
9.95
10.56
11.30
12.06
12.66
12.99
13.07
13.07
13.18
13.52
14.08
14.70
15.18
15.37
15.19
14.63
13.75
12.54
11.04
9.32
7.54
5.89
4.51
3.44
2.53
1.52
0.17
-1.61
-3.74
-5.96
-7.97
-9.57
-10.66
-11.36
-11.93
-12.66
-13.78
-15.47
-17.74
-20.45
-23.24
-25.59
-26.90
-26.68
-24.73
-21.25
-16.80
-12.04
-7.50
-3.43
0.23
3.59
6.74
9.57
11.88
13.46
14.25
14.39
14.17
13.91
13.87
14.19
14.89
15.91
17.09
18.31
19.41
20.31
20.97
21.34
21.32
20.77
19.51
17.39
14.47
10.99
7.42
4.24
1.81
0.26
-0.50
-0.69
-0.57
-0.33
-0.15
-0.20
-0.57
-1.29
-2.20
-3.08
-3.65
-3.81
-3.58
-3.12
-2.58
-1.95
-1.15
-0.10
1.14
2.35
3.16
3.19
2.27
0.42
-1.98
-4.34
-5.99
-6.42
-5.45
-3.31
-0.62
1.98
4.05
5.58
6.85
8.24
9.94
11.77
13.29
14.07
13.89
12.82
11.24
9.57
8.25
7.58
7.64
8.33
9.26
9.85
9.45
7.68
4.59
0.74
-3.00
-5.81
-7.27
-7.52
-7.11
-6.69
-6.73
-7.32
-8.29
-9.36
-10.29
-10.96
-11.35
-11.44
-11.21
-10.67
-9.88
-8.99
-8.22
-7.79
-7.89
-8.60
-9.86
-11.44
-13.01
-14.21
-14.84
-14.94
-14.78
-14.70
-14.96
-15.65
-16.67
-17.87
-19.09
-20.16
-20.87
-20.96
-20.11
-18.10
-15.00
-11.13
-7.00
-3.04
0.48
3.51
6.12
8.35
10.19
11.56
12.41
12.78
12.78
12.52
12.09
11.51
10.84
10.21
9.80
9.84
10.37
11.28
12.24
12.92
13.04
12.55
11.55
10.26
8.89
7.55
6.31
5.17
4.16
3.26
2.38
1.43
0.32
-0.91
-2.14
-3.26
-4.21
-5.04
-5.91
-6.97
-8.20
-9.48
-10.59
-11.36
-11.78
-12.07
-12.55
-13.54
-15.14
-17.19
-19.29
-20.96
-21.82
-21.72
-20.69
-18.88
-16.39
-13.28
-9.63
-5.62
-1.60
2.02
4.92
6.98
8.30
9.14
9.74
10.28
10.82
11.36
11.89
12.40
12.87
13.28
13.58
13.76
13.81
13.75
13.63
13.52
13.45
13.38
13.18
12.66
11.69
10.23
8.44
6.62
5.00
3.67
2.48
1.14
-0.57
-2.69
-5.07
-7.51
-9.90
-12.19
-14.34
-16.07
-16.99
-16.67
-14.97
-12.25
-9.34
-7.22
-6.71
-8.14
-11.33
-15.73
-20.56
-25.10
-28.67
-30.71
-30.81
-28.81
-24.87
-19.53
-13.66
-8.22
-4.06
-1.62
-0.85
-1.23
-2.01
-2.45
-2.12
-0.93
0.85
2.83
4.60
5.93
6.78
7.26
7.55
7.84
8.20
8.58
8.81
8.67
8.04
6.94
5.64
4.56
4.24
5.29
8.21
13.19
19.83
27.09
33.41
37.18
37.37
33.85
27.53
19.91
12.56
6.61
2.60
0.53
0.14
1.11
3.05
5.49
7.86
9.60
10.28
9.73
7.98
5.26
1.86
-1.87
-5.49
-8.56
-10.82
-12.26
-13.22
-14.25
-15.88
-18.29
-21.23
-24.10
-26.24
-27.22
-27.02
-25.90
-24.26
-22.33
-20.11
-17.40
-14.00
-9.89
-5.40
-1.07
2.50
4.92
6.16
6.51
6.45
6.36
6.45
6.75
7.25
8.01
9.21
11.05
13.55
16.48
19.38
21.74
23.21
23.70
23.36
22.46
21.19
19.56
17.47
14.74
11.31
7.27
2.88
-1.56
-5.83
-9.83
-13.52
-16.78
-19.40
-21.10
-21.77
-21.64
-21.27
-21.33
-22.30
-24.11
-26.14
-27.54
-27.65
-26.32
-23.87
-20.87
-17.81
-14.94
-12.37
-10.23
-8.86
-8.70
-9.93
-12.22
-14.61
-15.80
-14.70
-10.94
-5.06
1.70
7.99
12.87
16.07
17.88
18.78
19.10
18.94
18.26
17.16
15.98
15.27
15.48
16.78
18.92
21.36
23.50
24.91
25.41
25.03
23.91
22.10
19.56
16.11
11.60
6.10
0.00
-5.95
-10.76
-13.39
-12.99
-9.12
-1.79
8.43
20.44
32.71
43.50
51.13
54.47
53.20
47.90
39.84
30.45
20.97
12.24
4.71
-1.32
-5.61
-8.00
-8.57
-7.80
-6.48
-5.60
-5.96
-7.99
-11.66
-16.48
-21.75
-26.64
-30.45
-32.72
-33.35
-32.50
-30.47
-27.55
-23.91
-19.66
-15.02
-10.35
-6.14
-2.85
-0.71
0.43
1.01
1.57
2.52
3.95
5.66
7.31
8.53
9.10
8.98
8.29
7.27
6.21
5.36
4.96
5.10
5.76
6.73
7.69
8.33
8.50
8.18
7.60
7.06
6.79
6.85
7.01
6.86
5.92
3.90
0.80
-3.04
-7.08
-10.77
-13.75
-15.93
-17.43
-18.50
-19.31
-19.97
-20.54
-21.09
-21.80
-22.79
-24.11
-25.62
-26.99
-27.81
-27.68
-26.35
-23.80
-20.23
-16.00
-11.58
-7.39
-3.75
-0.77
1.63
3.63
5.42
7.05
8.44
9.48
10.06
10.30
10.42
10.69
11.29
12.24
13.40
14.55
15.53
16.22
16.53
16.37
15.62
14.21
12.26
10.08
8.13
6.81
6.31
6.48
6.96
7.25
7.06
6.31
5.19
3.96
2.84
1.87
0.99
0.12
-0.75
-1.58
-2.34
-3.06
-3.92
-5.02
-6.39
-7.96
-9.57
-11.14
-12.76
-14.57
-16.71
-19.15
-21.63
-23.80
-25.26
-25.70
-24.96
-23.01
-19.94
-16.01
-11.58
-7.18
-3.26
-0.14
2.15
3.86
5.36
6.98
8.81
10.68
12.22
13.02
12.84
11.64
9.70
7.48
5.50
4.24
4.01
4.88
6.69
9.09
11.66
13.97
15.69
16.58
16.51
15.47
13.56
10.98
8.02
4.97
2.11
-0.33
-2.20
-3.36
-3.78
-3.48
-2.61
-1.38
-0.07
1.10
1.93
2.27
2.01
1.11
-0.43
-2.58
-5.38
-8.89
-13.15
-18.01
-23.01
-27.40
-30.32
-31.04
-29.35
-25.61
-20.63
-15.31
-10.28
-5.75
-1.60
2.35
6.13
9.50
12.14
13.80
14.47
14.41
13.95
13.37
12.74
11.99
10.98
9.68
8.21
6.87
6.01
5.96
6.97
9.17
12.56
16.94
21.89
26.70
30.48
32.35
31.71
28.39
22.83
15.90
8.72
2.29
-2.77
-6.32
-8.60
-10.00
-10.77
-11.06
-10.89
-10.39
-9.94
-10.06
-11.29
-13.90
-17.82
-22.70
-28.03
-33.34
-38.16
-42.06
-44.50
-44.92
-42.92
-38.40
-31.61
-23.08
-13.50
-3.52
6.12
14.70
21.42
25.59
26.86
25.39
21.88
17.36
12.86
9.16
6.70
5.66
6.16
8.33
12.28
17.81
24.26
30.49
35.17
37.22
36.16
32.27
26.42
19.74
13.19
7.39
2.58
-1.23
-4.05
-5.85
-6.57
-6.28
-5.26
-3.97
-2.91
-2.45
-2.70
-3.49
-4.56
-5.69
-6.77
-7.71
-8.26
-8.00
-6.42
-3.25
1.26
6.25
10.42
12.49
11.68
8.03
2.39
-3.85
-9.21
-12.51
-13.06
-10.83
-6.26
-0.30
5.86
10.93
13.87
14.16
11.95
8.07
3.70
0.04
-2.12
-2.50
-1.32
0.87
3.48
5.94
7.84
8.86
8.86
7.88
6.19
4.20
2.25
0.42
-1.49
-3.75
-6.40
-8.95
-10.43
-9.76
-6.35
-0.50
6.58
13.19
17.72
19.31
17.90
14.09
8.74
2.64
-3.59
-9.47
-14.51
-18.20
-20.14
-20.28
-18.99
-17.02
-15.18
-14.05
-13.80
-14.11
-14.48
-14.44
-13.81
-12.63
-11.06
-9.13
-6.66
-3.39
0.81
5.77
10.96
15.62
19.03
20.68
20.45
18.66
15.96
13.21
11.25
10.71
11.81
14.31
17.49
20.31
21.80
21.28
18.66
14.41
9.44
4.70
0.89
-1.76
-3.42
-4.36
-4.82
-4.84
-4.34
-3.27
-1.82
-0.33
0.86
1.58
1.90
2.09
2.35
2.74
3.12
3.23
2.98
2.41
1.67
0.84
-0.24
-1.93
-4.47
-7.85
-11.57
-14.77
-16.57
-16.47
-14.56
-11.52
-8.19
-5.23
-2.89
-1.04
0.58
2.04
3.23
3.95
4.15
4.07
4.13
4.75
6.05
7.84
9.66
11.16
12.19
12.85
13.41
14.04
14.76
15.42
15.79
15.64
14.84
13.42
11.48
9.22
6.85
4.56
2.50
0.69
-0.95
-2.64
-4.58
-6.88
-9.42
-11.93
-14.01
-15.28
-15.49
-14.60
-12.84
-10.70
-8.90
-8.20
-9.24
-12.29
-17.17
-23.20
-29.37
-34.61
-37.99
-38.90
-37.16
-33.01
-27.15
-20.59
-14.46
-9.68
-6.65
-5.15
-4.49
-3.92
-2.98
-1.67
-0.41
0.34
0.35
-0.20
-0.82
-0.95
-0.17
1.66
4.33
7.40
10.29
12.42
13.33
12.77
10.79
7.75
4.19
0.67
-2.29
-4.39
-5.37
-5.16
-3.76
-1.38
1.49
4.26
6.37
7.49
7.68
7.33
6.91
6.81
7.07
7.39
7.29
6.25
3.98
0.53
-3.72
-8.15
-12.03
-14.75
-15.89
-15.31
-13.18
-9.82
-5.75
-1.59
2.01
4.52
5.66
5.54
4.65
3.74
3.58
4.64
6.95
10.03
13.10
15.26
15.79
14.38
11.15
6.64
1.65
-2.94
-6.34
-7.97
-7.58
-5.33
-1.69
2.53
6.45
9.24
10.39
9.80
7.85
5.20
2.63
0.72
-0.25
-0.35
0.07
0.55
0.71
0.28
-0.85
-2.60
-4.78
-7.08
-9.18
-10.85
-12.03
-12.87
-13.61
-14.51
-15.60
-16.71
-17.51
-17.68
-17.07
-15.72
-13.90
-11.86
-9.84
-7.91
-6.08
-4.37
-2.84
-1.58
-0.63
0.07
0.65
1.34
2.32
3.62
5.16
6.66
7.82
8.38
8.23
7.46
6.38
5.39
4.84
4.92
5.53
6.34
6.98
7.12
6.70
5.82
4.75
3.73
2.95
2.46
2.16
1.94
1.62
1.05
0.14
-1.15
-2.74
-4.48
-6.14
-7.44
-8.18
-8.27
-7.85
-7.28
-7.07
-7.68
-9.31
-11.78
-14.46
-16.53
-17.24
-16.26
-13.78
-10.38
-6.79
-3.59
-1.04
0.91
2.41
3.61
4.53
5.13
5.41
5.56
5.85
6.50
7.56
8.83
9.97
10.64
10.74
10.37
9.81
9.37
9.22
9.34
9.58
9.78
9.87
9.86
9.79
9.65
9.37
8.80
7.86
6.58
5.11
3.69
2.51
1.68
1.12
0.63
0.00
-0.91
-2.12
-3.43
-4.62
-5.55
-6.25
-6.90
-7.80
-9.17
-11.02
-13.10
-14.98
-16.22
-16.50
-15.75
-14.11
-11.84
-9.21
-6.47
-3.79
-1.27
0.98
2.89
4.38
5.44
6.14
6.64
7.11
7.63
8.18
8.61
8.78
8.62
8.18
7.64
7.18
6.91
6.83
6.81
6.72
6.46
6.00
5.42
4.79
4.21
3.72
3.36
3.11
2.91
2.67
2.32
1.82
1.19
0.51
-0.19
-0.89
-1.64
-2.48
-3.40
-4.32
-5.09
-5.59
-5.77
-5.71
-5.60
-5.66
-6.05
-6.83
-7.95
-9.27
-10.62
-11.92
-13.08
-13.98
-14.33
-13.68
-11.49
-7.39
-1.42
5.88
13.52
20.37
25.44
28.17
28.46
26.62
23.21
18.87
14.22
9.81
6.07
3.29
1.59
0.93
1.13
1.90
2.90
3.79
4.34
4.53
4.48
4.34
4.19
3.93
3.35
2.30
0.79
-0.94
-2.59
-3.90
-4.84
-5.66
-6.65
-8.03
-9.75
-11.51
-12.94
-13.80
-14.09
-14.14
-14.40
-15.29
-16.91
-19.03
-21.07
-22.37
-22.35
-20.83
-18.01
-14.37
-10.53
-6.97
-3.92
-1.44
0.53
2.02
2.99
3.41
3.41
3.22
3.16
3.45
4.13
5.02
5.90
6.59
7.05
7.35
7.61
7.88
8.14
8.35
8.49
8.58
8.69
8.85
9.05
9.21
9.19
8.89
8.26
7.38
6.36
5.38
4.53
3.83
3.19
2.41
1.33
-0.13
-1.90
-3.79
-5.58
-7.05
-8.05
-8.62
-8.94
-9.39
-10.40
-12.40
-15.62
-20.01
-25.08
-29.99
-33.65
-35.04
-33.61
-29.53
-23.61
-17.00
-10.67
-5.12
-0.24
4.36
8.99
13.60
17.82
21.20
23.33
24.05
23.31
21.16
17.84
13.86
10.08
7.58
7.26
9.45
13.75
19.11
24.32
28.40
30.86
31.68
31.14
29.59
27.45
25.08
22.89
21.15
19.93
19.07
18.20
16.91
15.00
12.54
9.76
6.97
4.30
1.75
-0.75
-3.21
-5.56
-7.57
-9.00
-9.63
-9.40
-8.41
-6.96
-5.46
-4.39
-4.11
-4.67
-5.84
-7.18
-8.18
-8.47
-7.84
-6.17
-3.41
0.38
5.00
10.03
14.90
19.03
22.10
24.09
25.24
25.82
25.96
25.53
24.32
22.18
19.24
15.87
12.52
9.59
7.30
5.68
4.67
4.14
3.96
4.01
4.10
4.01
3.57
2.64
1.24
-0.50
-2.37
-4.14
-5.61
-6.72
-7.46
-7.93
-8.22
-8.38
-8.36
-8.12
-7.72
-7.35
-7.36
-8.09
-9.75
-12.29
-15.48
-18.96
-22.42
-25.58
-28.21
-30.04
-30.78
-30.19
-28.26
-25.29
-21.87
-18.74
-16.49
-15.40
-15.37
-15.99
-16.73
-17.23
-17.28
-16.95
-16.39
-15.70
-14.86
-13.68
-11.98
-9.63
-6.74
-3.57
-0.45
2.37
4.84
7.05
9.09
10.91
12.28
12.81
12.23
10.58
8.26
5.93
4.27
3.70
4.29
5.77
7.71
9.72
11.53
12.93
13.77
13.86
13.09
11.53
9.54
7.67
6.60
6.81
8.42
11.06
14.00
16.32
17.20
16.14
13.03
8.22
2.39
-3.56
-8.71
-12.26
-13.76
-13.19
-11.00
-8.08
-5.46
-4.07
-4.46
-6.68
-10.32
-14.77
-19.33
-23.39
-26.42
-28.00
-27.82
-25.76
-22.03
-17.16
-11.88
-6.90
-2.72
0.48
2.79
4.38
5.44
6.07
6.33
6.27
5.99
5.57
5.09
4.66
4.30
4.01
3.76
3.48
3.13
2.76
2.45
2.36
2.57
3.08
3.78
4.51
5.17
5.71
6.09
6.26
6.18
5.83
5.27
4.62
3.96
3.38
2.82
2.24
1.63
1.05
0.63
0.37
0.17
-0.24
-1.06
-2.35
-3.93
-5.52
-6.89
-7.97
-8.92
-9.97
-11.38
-13.34
-16.01
-19.46
-23.60
-28.11
-32.30
-35.35
-36.44
-35.18
-31.74
-26.77
-21.13
-15.57
-10.53
-6.16
-2.44
0.69
3.20
5.12
6.54
7.62
8.55
9.40
10.14
10.63
10.78
10.61
10.23
9.88
9.79
10.11
10.84
11.82
12.74
13.30
13.35
12.90
12.16
11.39
10.74
10.22
9.73
9.15
8.50
7.91
7.46
7.10
6.58
5.62
4.08
2.15
0.21
-1.32
-2.25
-2.75
-3.16
-3.84
-4.89
-6.18
-7.44
-8.46
-9.23
-9.95
-10.91
-12.35
-14.34
-16.78
-19.48
-22.18
-24.66
-26.73
-28.23
-29.02
-28.89
-27.69
-25.34
-21.92
-17.76
-13.37
-9.33
-6.09
-3.85
-2.57
-2.07
-2.05
-2.10
-1.67
-0.09
3.31
8.83
16.23
24.63
32.78
39.50
44.14
46.69
47.60
47.52
46.94
46.06
44.94
43.61
42.16
40.76
39.48
38.23
36.66
34.31
30.72
25.74
19.61
13.00
6.78
1.76
-1.69
-3.71
-4.83
-5.69
-6.73
-8.08
-9.57
-10.97
-12.11
-13.03
-13.83
-14.67
-15.62
-16.69
-17.89
-19.27
-20.97
-23.12
-25.70
-28.46
-30.89
-32.34
-32.23
-30.31
-26.73
-22.08
-17.13
-12.57
-8.78
-5.83
-3.58
-1.82
-0.43
0.63
1.36
1.78
1.94
1.91
1.77
1.56
1.40
1.38
1.61
2.13
2.89
3.79
4.72
5.55
6.22
6.64
6.75
6.48
5.84
4.88
3.81
2.86
2.20
1.85
1.67
1.37
0.69
-0.46
-1.97
-3.55
-4.93
-5.97
-6.74
-7.45
-8.33
-9.53
-11.01
-12.71
-14.59
-16.67
-18.95
-21.26
-23.25
-24.45
-24.47
-23.16
-20.68
-17.38
-13.60
-9.60
-5.54
-1.62
1.92
4.78
6.79
7.96
8.53
8.84
9.11
9.36
9.46
9.28
8.84
8.35
8.06
8.16
8.62
9.25
9.85
10.34
10.75
11.21
11.74
12.22
12.41
12.09
11.24
10.01
8.68
7.43
6.31
5.20
3.92
2.40
0.66
-1.11
-2.77
-4.21
-5.45
-6.60
-7.82
-9.24
-10.94
-12.93
-15.15
-17.49
-19.84
-22.11
-24.15
-25.73
-26.53
-26.20
-24.48
-21.34
-17.03
-12.01
-6.83
-1.96
2.33
5.88
8.63
10.59
11.87
12.66
13.23
13.79
14.40
14.96
15.32
15.38
15.27
15.21
15.46
16.09
16.92
17.65
18.01
17.99
17.76
17.60
17.64
17.80
17.82
17.46
16.63
15.46
14.19
13.03
12.10
11.29
10.51
9.66
8.71
7.71
6.69
5.66
4.59
3.54
2.53
1.60
0.74
-0.17
-1.21
-2.48
-4.04
-5.92
-8.18
-10.89
-14.05
-17.55
-21.19
-24.74
-28.04
-30.94
-33.34
-35.00
-35.59
-34.74
-32.29
-28.41
-23.59
-18.58
-13.96
-10.00
-6.59
-3.45
-0.28
3.02
6.27
9.24
11.71
13.62
15.06
16.16
16.95
17.35
17.22
16.49
15.23
13.60
11.90
10.41
9.46
9.33
10.17
11.92
14.23
16.55
18.18
18.54
17.30
14.44
10.25
5.21
-0.04
-4.85
-8.69
-11.31
-12.81
-13.62
-14.30
-15.30
-16.82
-18.76
-20.79
-22.45
-23.27
-22.79
-20.73
-17.09
-12.25
-6.97
-2.11
1.59
3.85
4.89
5.25
5.49
5.97
6.75
7.67
8.51
9.12
9.49
9.75
9.98
10.28
10.63
11.00
11.36
11.73
12.20
12.87
13.79
14.82
15.69
16.06
15.73
14.68
13.19
11.62
10.30
9.37
8.73
8.17
7.45
6.51
5.38
4.16
2.90
1.54
-0.04
-1.97
-4.25
-6.76
-9.26
-11.55
-13.55
-15.33
-17.09
-19.13
-21.59
-24.45
-27.46
-30.20
-32.14
-32.80
-31.89
-29.42
-25.63
-21.04
-16.16
-11.46
-7.17
-3.31
0.22
3.53
6.65
9.48
11.87
13.66
14.78
15.27
15.27
14.92
14.41
13.90
13.59
13.67
14.29
15.45
16.95
18.43
19.52
19.97
19.80
19.16
18.25
17.21
16.04
14.67
13.16
11.63
10.24
9.06
8.04
7.02
5.89
4.69
3.58
2.77
2.38
2.31
2.25
1.80
0.69
-1.13
-3.42
-5.78
-7.83
-9.41
-10.63
-11.82
-13.31
-15.27
-17.64
-20.21
-22.70
-24.91
-26.70
-27.84
-28.06
-27.01
-24.47
-20.50
-15.51
-10.10
-4.91
-0.34
3.49
6.68
9.36
11.57
13.24
14.32
14.88
15.17
15.49
16.04
16.80
17.52
17.96
18.02
17.80
17.57
17.54
17.70
17.84
17.71
17.14
16.17
14.96
13.69
12.48
11.33
10.26
9.31
8.57
8.04
7.57
6.93
5.90
4.46
2.85
1.46
0.56
0.15
-0.08
-0.53
-1.50
-2.99
-4.78
-6.58
-8.18
-9.59
-10.92
-12.34
-13.91
-15.57
-17.25
-18.89
-20.52
-22.18
-23.87
-25.42
-26.50
-26.73
-25.76
-23.41
-19.75
-15.06
-9.81
-4.50
0.42
4.67
8.12
10.75
12.62
13.71
14.05
13.69
12.81
11.71
10.72
10.07
9.82
9.86
10.06
10.39
10.95
11.86
13.11
14.47
15.51
15.82
15.22
13.90
12.29
10.91
10.01
9.56
9.22
8.67
7.68
6.26
4.61
2.96
1.49
0.22
-0.91
-2.03
-3.23
-4.55
-6.00
-7.54
-9.11
-10.58
-11.90
-13.02
-13.99
-14.97
-16.14
-17.68
-19.66
-22.02
-24.52
-26.81
-28.45
-29.02
-28.23
-25.95
-22.31
-17.68
-12.57
-7.53
-3.02
0.69
3.58
5.78
7.55
9.10
10.50
11.72
12.62
13.16
13.42
13.61
13.94
14.54
15.36
16.25
17.05
17.72
18.34
19.01
19.74
20.33
20.48
19.95
18.65
16.77
14.68
12.81
11.47
10.74
10.50
10.50
10.49
10.27
9.71
8.76
7.38
5.61
3.58
1.51
-0.36
-1.81
-2.80
-3.53
-4.27
-5.31
-6.77
-8.56
-10.42
-12.07
-13.39
-14.42
-15.39
-16.59
-18.24
-20.42
-22.94
-25.47
-27.55
-28.71
-28.63
-27.21
-24.60
-21.08
-16.97
-12.57
-8.10
-3.77
0.15
3.38
5.72
7.12
7.77
8.01
8.18
8.47
8.87
9.25
9.55
9.82
10.20
10.77
11.49
12.23
12.76
13.02
13.03
12.91
12.73
12.44
11.92
11.07
9.89
8.52
7.17
5.97
4.96
4.07
3.22
2.33
1.45
0.69
0.12
-0.28
-0.72
-1.41
-2.51
-4.00
-5.65
-7.19
-8.44
-9.40
-10.23
-11.14
-12.29
-13.76
-15.55
-17.67
-20.05
-22.51
-24.68
-26.05
-26.14
-24.67
-21.71
-17.63
-13.00
-8.38
-4.23
-0.79
1.89
3.94
5.56
6.95
8.18
9.17
9.83
10.08
10.03
9.87
9.86
10.14
10.69
11.35
11.93
12.33
12.58
12.80
13.08
13.43
13.71
13.72
13.31
12.48
11.36
10.18
9.19
8.50
8.08
7.79
7.38
6.65
5.54
4.13
2.62
1.25
0.15
-0.69
-1.48
-2.51
-3.97
-5.81
-7.77
-9.47
-10.60
-11.14
-11.33
-11.56
-12.18
-13.36
-15.09
-17.22
-19.58
-21.93
-23.97
-25.27
-25.32
-23.73
-20.35
-15.49
-9.83
-4.19
0.71
4.45
6.97
8.45
9.18
9.46
9.46
9.35
9.25
9.26
9.41
9.62
9.78
9.77
9.62
9.42
9.36
9.58
10.11
10.83
11.56
12.06
12.18
11.86
11.19
10.33
9.48
8.78
8.28
7.92
7.58
7.11
6.41
5.47
4.36
3.19
2.08
1.15
0.43
-0.07
-0.46
-0.91
-1.64
-2.89
-4.74
-7.07
-9.53
-11.65
-13.06
-13.69
-13.84
-14.03
-14.78
-16.34
-18.50
-20.82
-22.67
-23.61
-23.41
-22.03
-19.54
-16.09
-11.88
-7.26
-2.68
1.39
4.60
6.84
8.19
8.81
8.84
8.41
7.68
6.89
6.36
6.39
7.12
8.43
10.03
11.55
12.68
13.21
13.13
12.54
11.66
10.74
9.94
9.30
8.75
8.18
7.57
7.01
6.62
6.48
6.42
6.13
5.28
3.78
1.84
-0.13
-1.71
-2.76
-3.43
-4.12
-5.20
-6.87
-9.03
-11.38
-13.51
-15.18
-16.33
-17.20
-18.18
-19.70
-22.00
-25.03
-28.39
-31.45
-33.51
-34.06
-32.96
-30.41
-26.82
-22.72
-18.53
-14.55
-11.02
-8.09
-5.84
-4.22
-2.88
-1.24
1.32
5.26
10.65
17.08
23.84
30.16
35.46
39.48
42.17
43.57
43.69
42.49
39.90
35.97
30.90
25.13
19.23
13.78
9.21
5.70
3.14
1.23
-0.36
-1.84
-3.25
-4.44
-5.26
-5.63
-5.64
-5.51
-5.49
-5.80
-6.56
-7.79
-9.38
-11.21
-13.08
-14.76
-16.11
-17.09
-17.83
-18.56
-19.56
-21.08
-23.15
-25.64
-28.19
-30.38
-31.80
-32.11
-31.07
-28.66
-25.01
-20.42
-15.30
-10.10
-5.18
-0.83
2.76
5.48
7.21
7.88
7.59
6.67
5.74
5.57
6.87
9.97
14.68
20.37
26.15
31.13
34.70
36.54
36.63
35.16
32.50
29.09
25.44
22.01
19.16
17.00
15.43
14.20
12.97
11.50
9.70
7.66
5.57
3.71
2.33
1.59
1.50
1.90
2.36
2.33
1.23
-1.33
-5.32
-10.21
-15.14
-19.16
-21.57
-22.26
-21.61
-20.41
-19.50
-19.49
-20.58
-22.49
-24.64
-26.30
-26.82
-25.76
-23.04
-18.88
-13.75
-8.26
-2.97
1.69
5.50
8.43
10.59
12.14
13.25
14.02
14.50
14.67
14.49
13.95
13.12
12.27
11.75
11.94
13.07
15.07
17.54
19.91
21.65
22.50
22.48
21.83
20.83
19.74
18.73
17.90
17.30
16.77
15.97
14.45
11.88
8.19
3.75
-0.82
-4.88
-7.99
-10.07
-11.25
-11.76
-11.73
-11.28
-10.52
-9.70
-9.10
-8.92
-9.20
-9.83
-10.62
-11.54
-12.70
-14.29
-16.37
-18.69
-20.69
-21.70
-21.21
-19.11
-15.74
-11.72
-7.74
-4.27
-1.50
0.66
2.35
3.69
4.73
5.42
5.78
5.90
5.91
5.94
5.98
5.96
5.80
5.49
5.15
4.97
5.12
5.62
6.39
7.28
8.19
9.06
9.84
10.35
10.34
9.54
7.89
5.63
3.23
1.16
-0.25
-1.05
-1.55
-2.14
-3.10
-4.51
-6.21
-7.99
-9.70
-11.30
-12.82
-14.38
-16.04
-17.85
-19.81
-21.87
-23.87
-25.54
-26.48
-26.27
-24.68
-21.67
-17.54
-12.81
-8.04
-3.62
0.19
3.34
5.83
7.61
8.69
9.12
9.09
8.92
8.96
9.40
10.23
11.19
11.99
12.41
12.41
12.11
11.67
11.27
10.86
10.34
9.55
8.47
7.31
6.54
6.67
8.03
10.61
13.98
17.43
20.22
21.74
21.68
20.01
16.94
12.82
8.06
3.05
-1.80
-6.15
-9.77
-12.55
-14.51
-15.83
-16.84
-17.91
-19.44
-21.59
-24.25
-27.00
-29.17
-30.14
-29.47
-27.07
-23.21
-18.42
-13.30
-8.30
-3.71
0.33
3.76
6.51
8.48
9.68
10.23
10.44
10.62
11.03
11.76
12.76
13.91
15.09
16.15
16.92
17.22
16.95
16.13
15.03
14.00
13.34
13.17
13.34
13.54
13.55
13.25
12.78
12.31
11.94
11.55
10.88
9.69
7.92
5.83
3.83
2.31
1.39
0.89
0.33
-0.70
-2.39
-4.55
-6.76
-8.64
-10.02
-11.02
-12.02
-13.35
-15.21
-17.58
-20.27
-22.95
-25.23
-26.69
-26.94
-25.69
-22.94
-18.99
-14.38
-9.73
-5.54
-2.03
0.87
3.30
5.36
7.00
8.11
8.62
8.61
8.30
7.95
7.75
7.75
7.93
8.25
8.70
9.27
9.94
10.65
11.32
11.91
12.43
12.85
13.12
13.12
12.71
11.88
10.76
9.57
8.50
7.56
6.65
5.57
4.21
2.62
0.93
-0.70
-2.23
-3.71
-5.22
-6.80
-8.40
-9.94
-11.36
-12.69
-14.04
-15.58
-17.42
-19.59
-22.00
-24.39
-26.45
-27.78
-28.02
-26.91
-24.42
-20.68
-16.05
-10.97
-5.90
-1.24
2.68
5.68
7.71
8.86
9.40
9.64
9.85
10.17
10.56
10.93
11.24
11.58
12.12
13.02
14.26
15.68
16.98
17.90
18.35
18.32
17.88
17.07
15.87
14.33
12.56
10.79
9.26
8.18
7.60
7.37
7.22
6.83
5.96
4.57
2.79
0.93
-0.74
-2.03
-2.92
-3.55
-4.12
-4.86
-5.88
-7.17
-8.67
-10.30
-12.01
-13.85
-15.86
-18.08
-20.39
-22.52
-24.03
-24.49
-23.61
-21.33
-17.85
-13.55
-8.88
-4.28
-0.15
3.21
5.64
7.16
7.98
8.39
8.59
8.68
8.59
8.30
7.92
7.67
7.86
8.62
9.88
11.34
12.63
13.51
13.86
13.80
13.53
13.22
12.99
12.87
12.80
12.67
12.35
11.70
10.68
9.30
7.67
5.92
4.22
2.69
1.43
0.48
-0.25
-0.90
-1.69
-2.78
-4.20
-5.79
-7.35
-8.66
-9.66
-10.48
-11.29
-12.31
-13.63
-15.23
-16.97
-18.72
-20.32
-21.59
-22.36
-22.40
-21.51
-19.57
-16.59
-12.80
-8.53
-4.21
-0.20
3.16
5.72
7.41
8.31
8.59
8.51
8.31
8.24
8.42
8.86
9.51
10.27
11.02
11.64
12.07
12.37
12.61
12.92
13.35
13.84
14.22
14.25
13.77
12.79
11.50
10.14
8.94
8.02
7.32
6.72
6.09
5.30
4.24
2.88
1.25
-0.52
-2.29
-3.89
-5.23
-6.29
-7.16
-7.94
-8.79
-9.82
-11.14
-12.87
-15.06
-17.71
-20.70
-23.74
-26.45
-28.38
-29.18
-28.64
-26.76
-23.70
-19.80
-15.42
-10.91
-6.61
-2.78
0.37
2.80
4.54
5.77
6.66
7.36
7.94
8.47
8.99
9.49
9.93
10.22
10.23
9.94
9.45
9.01
8.86
9.12
9.72
10.36
10.72
10.56
9.86
8.75
7.39
5.95
4.52
3.16
1.95
0.95
0.18
-0.39
-0.85
-1.37
-2.07
-3.00
-4.15
-5.41
-6.67
-7.87
-9.08
-10.41
-12.01
-13.95
-16.18
-18.49
-20.54
-21.91
-22.19
-21.23
-19.12
-16.25
-13.19
-10.46
-8.29
-6.43
-4.28
-1.08
3.62
9.68
16.41
22.76
27.71
30.64
31.46
30.52
28.37
25.50
22.25
18.91
15.71
12.99
11.01
9.89
9.44
9.28
8.99
8.26
7.07
5.58
4.04
2.64
1.40
0.25
-0.87
-1.95
-2.88
-3.58
-4.04
-4.38
-4.80
-5.44
-6.34
-7.40
-8.43
-9.29
-9.92
-10.39
-10.84
-11.40
-12.12
-12.96
-13.77
-14.36
-14.53
-14.13
-13.02
-11.16
-8.58
-5.33
-1.59
2.44
6.47
10.16
13.18
15.27
16.33
16.42
15.79
14.77
13.66
12.74
12.20
12.18
12.70
13.63
14.72
15.59
15.88
15.41
14.30
12.90
11.65
10.81
10.38
10.13
9.73
9.03
8.07
6.99
5.93
4.94
3.97
3.02
2.17
1.50
0.98
0.41
-0.50
-1.94
-3.87
-6.07
-8.18
-9.97
-11.43
-12.66
-13.88
-15.22
-16.72
-18.36
-20.08
-21.74
-23.13
-23.93
-23.83
-22.60
-20.24
-16.98
-13.23
-9.40
-5.81
-2.61
0.17
2.52
4.40
5.74
6.45
6.47
5.84
4.71
3.32
1.94
0.89
0.37
0.52
1.31
2.58
4.06
5.50
6.62
7.21
7.04
5.97
3.98
1.28
-1.71
-4.49
-6.69
-8.23
-9.33
-10.39
-11.77
-13.63
-15.90
-18.42
-21.09
-23.92
-27.00
-30.42
-34.13
-38.01
-41.86
-45.61
-49.33
-53.18
-57.23
-61.29
-64.98
-67.88
-69.81
-70.99
-71.96
-73.37
-75.66
-78.87
-82.60
-86.21
-89.03
-90.63
-91.04
-90.76
-90.74
-92.02
-95.41
-101.11
-108.61
-116.71
-123.78
-127.99
-127.53
-120.94
-107.31
-86.65
-60.04
-29.50
2.44
33.40
61.86
87.38
110.59
132.57
154.21
175.77
196.62
215.50
230.91
241.59
246.89
246.74
241.58
232.03
218.88
203.00
185.45
167.44
150.06
134.01
119.30
105.30
91.08
75.91
59.61
42.77
26.46
11.86
-0.20
-9.50
-16.45
-21.85
-26.54
-31.09
-35.75
-40.54
-45.41
-50.45
-55.85
-61.85
-68.45
-75.35
-81.85
-87.10
-90.34
-91.19
-89.81
-86.76
-82.89
-78.91
-75.31
-72.32
-69.96
-68.08
-66.37
-64.16
-60.59
-54.70
-45.84
-33.92
-19.53
-3.66
12.64
28.78
44.73
60.88
77.50
94.17
109.56
121.56
127.98
127.37
119.66
106.18
89.22
71.13
53.51
37.03
21.75
7.70
-4.80
-15.13
-22.80
-27.83
-30.72
-32.29
-33.15
-33.45
-32.95
-31.28
-28.19
-23.79
-18.54
-13.16
-8.45
-5.06
-3.29
-2.87
-2.91
-2.15
0.65
6.18
14.24
23.79
33.37
41.55
47.35
50.48
51.20
50.02
47.52
44.16
40.32
36.38
32.71
29.61
27.22
25.47
24.03
22.44
20.28
17.29
13.40
8.75
3.62
-1.59
-6.40
-10.37
-13.18
-14.73
-15.17
-14.76
-13.78
-12.31
-10.30
-7.70
-4.53
-1.07
2.18
4.68
6.01
6.03
4.88
2.85
0.24
-2.76
-6.03
-9.45
-12.85
-15.97
-18.50
-20.27
-21.29
-21.79
-22.11
-22.55
-23.19
-23.88
-24.26
-23.99
-22.89
-21.09
-18.93
-16.87
-15.33
-14.53
-14.52
-15.19
-16.33
-17.65
-18.80
-19.35
-18.88
-17.04
-13.66
-8.75
-2.50
4.81
12.85
21.27
29.67
37.63
44.85
51.28
57.30
63.60
71.09
80.35
91.31
103.01
113.72
121.40
124.30
121.41
112.82
99.63
83.74
67.36
52.47
40.39
31.35
24.49
18.18
10.71
1.08
-10.50
-22.76
-34.09
-43.49
-51.14
-58.45
-67.62
-80.83
-99.58
-124.13
-153.22
-184.12
-213.03
-235.84
-248.94
-250.07
-238.61
-215.56
-183.07
-143.92
-101.07
-57.39
-15.54
22.17
53.89
78.46
95.62
105.99
110.96
112.35
111.87
110.63
108.96
106.62
103.29
99.04
94.50
90.42
87.18
84.36
80.89
75.45
67.04
55.30
40.50
23.37
4.88
-13.77
-31.25
-46.19
-57.44
-64.42
-67.27
-66.91
-64.73
-62.16
-60.31
-59.59
-59.81
-60.33
-60.50
-59.96
-58.73
-57.14
-55.57
-54.28
-53.40
-52.92
-52.86
-53.21
-53.83
-54.41
-54.38
-53.08
-49.98
-44.90
-38.08
-30.13
-21.82
-13.92
-7.01
-1.43
2.78
5.84
8.13
10.07
12.09
14.46
17.27
20.46
23.78
26.81
29.14
30.39
30.44
29.36
27.45
25.02
22.28
19.29
15.97
12.24
8.16
3.95
-0.06
-3.58
-6.48
-8.75
-10.57
-12.16
-13.71
-15.37
-17.20
-19.17
-21.10
-22.72
-23.69
-23.71
-22.70
-20.84
-18.61
-16.58
-15.25
-14.82
-15.07
-15.56
-15.86
-15.81
-15.64
-15.87
-17.03
-19.40
-22.82
-26.77
-30.49
-33.20
-34.31
-33.44
-30.58
-26.06
-20.47
-14.60
-9.13
-4.56
-1.06
1.46
3.24
4.47
5.34
5.95
6.47
7.12
8.11
9.57
11.44
13.54
15.63
17.53
19.17
20.53
21.66
22.56
23.16
23.41
23.19
22.48
21.34
19.95
18.50
17.19
16.13
15.26
14.42
13.45
12.24
10.80
9.23
7.70
6.40
5.44
4.87
4.59
4.34
3.83
2.79
1.14
-0.98
-3.23
-5.26
-6.88
-8.16
-9.40
-10.93
-12.99
-15.55
-18.30
-20.77
-22.43
-22.87
-21.81
-19.23
-15.31
-10.42
-5.02
0.40
5.40
9.66
13.02
15.41
16.87
17.49
17.37
16.69
15.67
14.59
13.74
13.34
13.48
14.16
15.29
16.70
18.24
19.67
20.77
21.32
21.23
20.53
19.41
18.17
17.06
16.24
15.72
15.38
15.02
14.54
13.92
13.19
12.44
11.67
10.84
9.87
8.71
7.40
6.05
4.77
3.61
2.47
1.13
-0.56
-2.62
-4.87
-6.99
-8.72
-9.98
-10.93
-11.96
-13.48
-15.73
-18.61
-21.70
-24.26
-25.56
-25.06
-22.59
-18.41
-13.11
-7.41
-1.92
2.98
7.17
10.70
13.63
15.92
17.41
17.91
17.36
15.93
14.04
12.24
11.06
10.78
11.37
12.49
13.60
14.19
13.89
12.56
10.34
7.54
4.60
1.94
-0.10
-1.30
-1.58
-0.99
0.28
1.89
3.46
4.59
5.02
4.69
3.71
2.34
0.83
-0.68
-2.16
-3.61
-5.00
-6.22
-7.09
-7.50
-7.46
-7.05
-6.42
-5.75
-5.20
-4.96
-5.26
-6.24
-7.86
-9.84
-11.65
-12.72
-12.58
-11.04
-8.19
-4.33
0.15
4.81
9.23
13.03
15.88
17.64
18.39
18.38
17.96
17.48
17.15
17.10
17.40
18.09
19.14
20.47
21.84
22.96
23.51
23.30
22.29
20.66
18.69
16.66
14.70
12.79
10.73
8.36
5.58
2.49
-0.60
-3.35
-5.50
-6.92
-7.69
-8.01
-8.12
-8.25
-8.55
-9.09
-9.92
-10.99
-12.29
-13.75
-15.32
-16.99
-18.81
-20.84
-23.16
-25.77
-28.54
-31.20
-33.35
-34.56
-34.49
-32.95
-29.97
-25.77
-20.73
-15.31
-10.02
-5.30
-1.48
1.31
3.19
4.44
5.38
6.28
7.22
8.08
8.69
8.84
8.52
7.89
7.24
6.88
7.04
7.72
8.68
9.53
9.87
9.39
7.97
5.70
2.85
-0.11
-2.53
-3.66
-2.92
-0.11
4.34
9.41
13.84
16.56
17.21
16.19
14.51
13.23
13.06
14.08
15.94
18.17
20.43
22.61
24.56
25.97
26.25
24.75
21.14
15.70
9.36
3.44
-0.85
-2.91
-2.87
-1.44
0.48
2.23
3.46
4.15
4.38
4.21
3.67
2.86
2.03
1.56
1.86
3.13
5.27
7.86
10.30
12.00
12.60
12.11
10.86
9.41
8.27
7.73
7.77
8.10
8.34
8.18
7.46
6.25
4.69
3.02
1.42
0.03
-1.08
-1.96
-2.67
-3.38
-4.28
-5.60
-7.52
-10.00
-12.69
-14.87
-15.62
-14.20
-10.48
-5.06
0.81
5.74
8.72
9.44
8.31
5.98
3.00
-0.50
-4.60
-9.35
-14.44
-19.14
-22.68
-24.51
-24.67
-23.70
-22.37
-21.27
-20.55
-19.93
-18.89
-17.04
-14.30
-10.93
-7.46
-4.38
-2.02
-0.42
0.58
1.21
1.68
2.00
2.08
1.74
0.91
-0.34
-1.82
-3.28
-4.51
-5.40
-5.83
-5.71
-4.94
-3.49
-1.49
0.78
3.00
4.92
6.56
8.17
10.09
12.57
15.56
18.68
21.31
22.82
22.75
20.89
17.35
12.47
6.79
1.02
-4.11
-7.91
-9.87
-9.76
-7.74
-4.29
-0.23
3.51
5.98
6.45
4.59
0.56
-5.06
-11.43
-17.73
-23.40
-28.20
-32.12
-35.19
-37.34
-38.33
-37.89
-35.84
-32.21
-27.26
-21.42
-15.25
-9.29
-3.90
0.82
5.08
9.29
13.84
18.84
23.93
28.47
31.77
33.48
33.80
33.31
32.68
32.31
32.21
32.09
31.62
30.54
28.80
26.43
23.42
19.74
15.40
10.53
5.48
0.76
-3.22
-6.24
-8.46
-10.38
-12.62
-15.58
-19.20
-22.86
-25.65
-26.78
-25.93
-23.54
-20.53
-17.95
-16.48
-16.25
-16.86
-17.60
-17.87
-17.20
-15.45
-12.81
-9.82
-7.36
-6.45
-7.87
-11.74
-17.36
-23.29
-27.87
-29.84
-28.73
-24.91
-19.24
-12.60
-5.63
1.27
7.74
13.24
17.02
18.43
17.21
13.74
9.05
4.47
1.18
-0.16
0.45
2.50
5.31
8.30
11.21
14.04
16.89
19.77
22.45
24.57
25.69
25.51
24.03
21.53
18.50
15.45
12.76
10.58
8.84
7.34
5.87
4.26
2.42
0.35
-1.88
-4.10
-6.09
-7.56
-8.32
-8.37
-7.96
-7.55
-7.67
-8.69
-10.72
-13.55
-16.78
-19.91
-22.42
-23.92
-24.13
-22.94
-20.38
-16.62
-11.88
-6.40
-0.51
5.42
10.82
15.11
17.73
18.37
17.09
14.33
10.75
7.07
3.86
1.47
0.07
-0.38
0.03
1.13
2.77
4.79
7.10
9.56
11.95
13.94
15.10
15.09
13.83
11.63
9.08
6.85
5.42
4.92
5.07
5.41
5.46
4.92
3.65
1.69
-0.88
-3.93
-7.23
-10.49
-13.35
-15.55
-16.94
-17.63
-17.89
-18.06
-18.39
-18.93
-19.50
-19.80
-19.42
-17.99
-15.30
-11.31
-6.28
-0.72
4.64
9.15
12.29
13.92
14.22
13.63
12.65
11.67
10.89
10.28
9.70
9.00
8.11
7.08
6.11
5.44
5.29
5.84
7.11
8.99
11.27
13.59
15.54
16.66
16.63
15.30
12.87
9.77
6.60
3.89
2.03
1.11
1.02
1.46
2.00
2.16
1.49
-0.26
-3.12
-6.79
-10.84
-14.82
-18.42
-21.55
-24.27
-26.60
-28.48
-29.73
-30.12
-29.48
-27.84
-25.37
-22.25
-18.69
-14.81
-10.80
-6.93
-3.60
-1.20
0.11
0.52
0.67
1.37
3.38
7.04
12.15
18.03
23.73
28.37
31.32
32.31
31.41
28.95
25.46
21.54
17.79
14.68
12.56
11.56
11.62
12.50
13.84
15.19
16.11
16.22
15.34
13.50
10.96
8.21
5.73
3.87
2.67
1.86
0.93
-0.52
-2.65
-5.28
-7.98
-10.43
-12.57
-14.62
-16.94
-19.75
-22.91
-25.99
-28.38
-29.47
-28.74
-25.78
-20.40
-12.75
-3.59
5.73
13.43
17.93
18.36
14.96
8.98
2.28
-3.32
-6.51
-6.76
-4.31
0.02
5.03
9.49
12.38
13.19
11.91
9.04
5.24
1.13
-2.84
-6.43
-9.47
-11.79
-13.27
-13.91
-13.88
-13.42
-12.83
-12.28
-11.90
-11.72
-11.71
-11.63
-11.03
-9.15
-5.28
0.81
8.56
16.48
22.61
25.27
23.74
18.59
11.49
4.60
-0.22
-1.99
-0.81
2.43
6.43
9.93
12.03
12.28
10.66
7.49
3.35
-0.94
-4.47
-6.44
-6.36
-4.32
-0.97
2.56
5.10
5.77
4.31
1.07
-3.13
-7.26
-10.29
-11.33
-9.83
-5.73
0.35
7.13
12.95
16.19
15.92
12.23
6.14
-0.80
-7.11
-11.88
-14.79
-15.96
-15.66
-14.13
-11.68
-8.76
-6.11
-4.57
-4.82
-7.11
-11.15
-16.20
-21.34
-25.68
-28.60
-29.80
-29.32
-27.51
-24.94
-22.29
-20.20
-19.07
-19.01
-19.68
-20.34
-19.95
-17.50
-12.39
-4.83
4.14
12.91
19.84
23.93
25.09
24.09
22.17
20.54
20.06
21.09
23.57
27.03
30.74
33.86
35.58
35.44
33.44
29.99
25.67
21.02
16.38
12.06
8.34
5.51
3.72
2.73
1.96
0.71
-1.56
-4.98
-9.31
-14.14
-19.06
-23.60
-27.18
-28.93
-27.92
-23.55
-16.07
-6.71
2.50
9.49
12.83
12.22
8.46
3.09
-2.15
-5.85
-7.18
-5.99
-2.78
1.48
5.62
8.56
9.60
8.45
5.28
0.58
-5.02
-10.80
-15.99
-19.78
-21.47
-20.66
-17.52
-12.89
-8.03
-4.24
-2.37
-2.61
-4.46
-7.08
-9.50
-10.89
-10.63
-8.38
-4.20
1.27
6.88
11.16
12.84
11.29
6.79
0.45
-6.19
-11.62
-14.77
-15.20
-13.08
-9.10
-4.33
0.04
2.91
3.61
2.00
-1.41
-5.63
-9.49
-11.96
-12.51
-11.20
-8.68
-5.86
-3.60
-2.35
-2.07
-2.38
-2.76
-2.81
-2.31
-1.28
0.08
1.48
2.62
3.41
4.15
5.46
8.02
12.14
17.32
22.24
25.21
24.84
20.72
13.69
5.47
-1.97
-7.08
-9.19
-8.62
-6.34
-3.56
-1.36
-0.44
-1.01
-2.98
-6.05
-9.92
-14.28
-18.72
-22.54
-24.79
-24.50
-21.12
-14.99
-7.38
-0.21
4.74
6.45
5.05
1.63
-2.21
-4.94
-5.45
-3.17
1.96
9.44
18.23
26.70
33.00
35.50
33.44
27.31
18.71
9.86
2.84
-1.00
-1.43
0.75
4.10
6.96
8.01
6.54
2.62
-3.07
-9.44
-15.36
-19.87
-22.45
-23.00
-21.91
-19.93
-17.97
-16.94
-17.40
-19.48
-22.74
-26.30
-29.05
-30.08
-29.01
-26.02
-21.75
-16.93
-11.95
-6.70
-0.73
6.26
13.97
21.30
26.71
28.86
27.22
22.34
15.59
8.64
2.84
-1.00
-2.66
-2.27
-0.24
2.89
6.45
9.72
12.04
13.04
12.68
11.24
9.16
6.86
4.71
3.00
2.01
1.93
2.69
4.03
5.37
6.14
5.89
4.51
2.17
-0.86
-4.37
-8.21
-12.19
-15.81
-18.27
-18.61
-16.23
-11.20
-4.47
2.48
8.13
11.56
12.62
11.86
10.10
8.13
6.53
5.73
6.11
7.95
11.29
15.75
20.50
24.48
26.72
26.76
24.76
21.41
17.66
14.35
12.02
10.79
10.48
10.68
10.96
10.99
10.54
9.49
7.88
5.80
3.44
1.04
-1.17
-3.00
-4.33
-5.12
-5.37
-5.09
-4.30
-3.02
-1.31
0.58
2.32
3.44
3.49
2.09
-0.97
-5.62
-11.50
-18.00
-24.28
-29.36
-32.25
-32.11
-28.48
-21.52
-12.12
-1.81
7.59
14.42
17.69
17.29
13.87
8.64
2.92
-2.02
-5.21
-6.00
-4.19
-0.07
5.50
11.32
16.17
19.17
20.03
19.02
16.76
13.93
11.00
8.21
5.60
3.18
0.91
-1.22
-3.19
-4.87
-6.00
-6.18
-5.11
-2.73
0.51
3.70
5.70
5.52
2.73
-2.38
-8.94
-15.80
-21.91
-26.53
-29.27
-29.97
-28.66
-25.46
-20.79
-15.27
-9.78
-5.10
-1.75
0.25
1.34
2.14
3.23
4.80
6.68
8.46
9.73
10.29
10.16
9.59
8.91
8.37
8.22
8.55
9.36
10.48
11.55
12.16
11.97
10.91
9.22
7.36
5.85
5.02
4.92
5.36
6.01
6.54
6.61
5.92
4.23
1.46
-2.19
-6.23
-10.00
-12.92
-14.69
-15.37
-15.31
-14.99
-14.80
-14.99
-15.56
-16.33
-17.02
-17.31
-16.95
-15.82
-13.95
-11.52
-8.76
-5.87
-2.99
-0.21
2.38
4.67
6.57
8.01
9.03
9.71
10.14
10.34
10.26
9.83
9.05
8.04
7.02
6.27
5.93
5.99
6.24
6.41
6.25
5.68
4.76
3.67
2.62
1.79
1.28
1.07
1.08
1.13
1.03
0.62
-0.18
-1.34
-2.78
-4.36
-6.01
-7.69
-9.41
-11.19
-12.97
-14.64
-16.05
-17.03
-17.46
-17.22
-16.28
-14.65
-12.48
-9.99
-7.49
-5.24
-3.37
-1.80
-0.36
1.20
3.00
4.97
6.89
8.47
9.49
9.91
9.87
9.58
9.24
8.95
8.67
8.32
7.80
7.07
6.20
5.30
4.45
3.75
3.20
2.79
2.56
2.53
2.71
3.05
3.40
3.56
3.32
2.60
1.49
0.22
-1.01
-2.08
-3.04
-4.09
-5.41
-7.00
-8.74
-10.37
-11.68
-12.65
-13.38
-14.01
-14.55
-14.81
-14.43
-13.13
-10.80
-7.65
-4.14
-0.73
2.20
4.51
6.22
7.49
8.44
9.16
9.68
10.02
10.26
10.52
10.95
11.59
12.32
12.92
13.16
12.94
12.35
11.65
11.04
10.59
10.11
9.29
7.96
6.19
4.37
2.99
2.39
2.53
3.06
3.48
3.42
2.84
1.93
1.00
0.25
-0.39
-1.11
-2.10
-3.43
-4.93
-6.42
-7.82
-9.17
-10.57
-11.99
-13.16
-13.64
-13.04
-11.20
-8.29
-4.76
-1.09
2.38
5.46
8.14
10.40
12.13
13.21
13.51
13.02
11.84
10.13
8.09
5.93
3.85
2.03
0.59
-0.41
-0.98
-1.11
-0.85
-0.28
0.48
1.22
1.71
1.79
1.46
0.89
0.32
-0.03
-0.15
-0.25
-0.63
-1.56
-3.06
-4.99
-7.03
-8.83
-10.16
-10.91
-11.14
-11.00
-10.77
-10.66
-10.90
-11.65
-12.97
-14.74
-16.68
-18.35
-19.24
-18.93
-17.16
-14.02
-9.87
-5.28
-0.87
2.88
5.71
7.57
8.56
8.88
8.74
8.33
7.85
7.44
7.20
7.19
7.43
7.88
8.46
9.07
9.59
9.89
9.89
9.57
8.97
8.23
7.49
6.87
6.42
6.13
5.94
5.79
5.63
5.38
4.94
4.21
3.11
1.64
-0.09
-1.91
-3.63
-5.11
-6.36
-7.48
-8.66
-10.03
-11.60
-13.27
-14.79
-15.94
-16.49
-16.32
-15.38
-13.68
-11.27
-8.31
-5.03
-1.80
0.94
2.86
3.84
4.04
3.81
3.51
3.36
3.36
3.42
3.40
3.31
3.30
3.54
4.17
5.14
6.26
7.27
7.92
8.09
7.79
7.13
6.26
5.39
4.66
4.14
3.81
3.54
3.19
2.67
1.96
1.24
0.70
0.49
0.61
0.86
0.88
0.31
-1.03
-3.09
-5.61
-8.16
-10.40
-12.09
-13.14
-13.57
-13.40
-12.62
-11.23
-9.31
-7.13
-5.03
-3.28
-1.96
-0.92
0.13
1.36
2.70
3.91
4.63
4.61
3.87
2.64
1.31
0.26
-0.17
0.14
1.21
2.79
4.52
6.00
6.95
7.30
7.24
7.10
7.13
7.42
7.88
8.33
8.58
8.52
8.14
7.45
6.51
5.40
4.21
3.05
1.99
1.08
0.23
-0.65
-1.67
-2.89
-4.34
-5.93
-7.62
-9.30
-10.85
-12.12
-12.95
-13.15
-12.57
-11.16
-8.99
-6.26
-3.27
-0.31
2.39
4.72
6.60
8.01
8.90
9.31
9.33
9.20
9.15
9.42
10.08
11.03
12.03
12.71
12.69
11.63
9.43
6.31
2.87
-0.04
-1.62
-1.47
0.18
2.59
4.82
6.11
6.24
5.44
4.18
2.89
1.78
0.84
-0.03
-0.88
-1.78
-2.77
-3.90
-5.21
-6.69
-8.21
-9.63
-10.85
-11.85
-12.74
-13.70
-14.89
-16.36
-18.02
-19.63
-20.84
-21.29
-20.68
-18.87
-15.96
-12.30
-8.36
-4.62
-1.39
1.24
3.35
5.14
6.71
8.05
9.04
9.58
9.68
9.54
9.38
9.36
9.47
9.51
9.32
8.85
8.30
7.99
8.17
8.89
9.88
10.77
11.14
10.82
9.83
8.46
7.04
5.89
5.18
4.88
4.82
4.74
4.43
3.79
2.85
1.71
0.48
-0.72
-1.81
-2.66
-3.16
-3.18
-2.76
-2.06
-1.41
-1.19
-1.70
-3.11
-5.37
-8.20
-11.17
-13.78
-15.53
-16.03
-15.10
-12.75
-9.27
-5.07
-0.64
3.55
7.07
9.63
11.10
11.52
11.07
10.01
8.65
7.25
6.05
5.20
4.83
4.93
5.41
6.04
6.60
6.95
7.05
7.05
7.11
7.31
7.59
7.75
7.54
6.80
5.54
3.90
2.08
0.31
-1.28
-2.58
-3.58
-4.28
-4.73
-5.07
-5.46
-6.08
-7.05
-8.33
-9.79
-11.25
-12.59
-13.86
-15.20
-16.76
-18.54
-20.32
-21.73
-22.36
-21.99
-20.60
-18.43
-15.79
-12.97
-10.11
-7.24
-4.38
-1.56
1.05
3.28
4.97
6.01
6.45
6.54
6.58
6.90
7.65
8.76
10.02
11.14
11.95
12.40
12.56
12.46
12.10
11.44
10.53
9.50
8.65
8.21
8.26
8.58
8.77
8.39
7.17
5.16
2.67
0.19
-1.88
-3.31
-4.10
-4.43
-4.53
-4.61
-4.80
-5.18
-5.84
-6.83
-8.21
-9.98
-12.07
-14.35
-16.64
-18.74
-20.38
-21.27
-21.10
-19.68
-17.03
-13.39
-9.17
-4.86
-0.85
2.59
5.38
7.53
9.05
9.99
10.41
10.43
10.27
10.12
10.16
10.44
10.91
11.46
11.98
12.42
12.73
12.88
12.85
12.63
12.25
11.81
11.39
11.09
10.88
10.67
10.38
9.99
9.57
9.21
8.91
8.57
8.00
7.01
5.58
3.93
2.41
1.31
0.69
0.29
-0.31
-1.45
-3.23
-5.42
-7.61
-9.46
-10.84
-11.86
-12.82
-14.03
-15.66
-17.68
-19.82
-21.65
-22.70
-22.56
-21.06
-18.29
-14.61
-10.51
-6.46
-2.87
0.08
2.32
3.89
4.95
5.62
6.03
6.25
6.31
6.24
6.09
5.97
5.96
6.14
6.47
6.91
7.38
7.84
8.24
8.52
8.53
8.17
7.48
6.66
6.09
6.11
6.85
8.11
9.42
10.26
10.26
9.37
7.81
5.93
3.99
2.09
0.23
-1.60
-3.31
-4.68
-5.52
-5.75
-5.49
-5.03
-4.73
-4.93
-5.84
-7.53
-9.85
-12.53
-15.12
-17.13
-18.10
-17.75
-16.07
-13.28
-9.77
-6.01
-2.37
0.90
3.69
5.98
7.77
9.03
9.66
9.58
8.85
7.69
6.48
5.68
5.57
6.21
7.42
8.92
10.46
11.95
13.39
14.77
15.96
16.74
16.77
15.79
13.69
10.53
6.56
2.17
-2.18
-6.06
-9.06
-10.99
-11.84
-11.83
-11.35
-10.81
-10.54
-10.67
-11.16
-11.84
-12.51
-13.03
-13.37
-13.60
-13.92
-14.54
-15.68
-17.46
-19.78
-22.34
-24.57
-25.78
-25.32
-22.82
-18.28
-12.16
-5.27
1.53
7.47
12.05
15.19
17.05
17.92
18.12
17.81
17.07
15.97
14.63
13.21
11.87
10.67
9.54
8.37
7.08
5.72
4.51
3.68
3.44
3.80
4.61
5.65
6.78
7.92
9.12
10.46
11.95
13.47
14.77
15.54
15.49
14.48
12.61
10.15
7.50
5.04
2.97
1.24
-0.39
-2.31
-4.87
-8.31
-12.70
-17.90
-23.52
-28.90
-33.15
-35.36
-34.88
-31.61
-26.07
-19.27
-12.39
-6.41
-1.76
1.57
3.84
5.33
6.08
6.02
5.09
3.46
1.59
0.09
-0.44
0.22
1.91
4.11
6.20
7.73
8.68
9.38
10.37
12.05
14.47
17.24
19.74
21.36
21.77
21.06
19.62
17.95
16.47
15.39
14.72
14.28
13.92
13.52
13.01
12.40
11.68
10.84
9.85
8.68
7.30
5.78
4.24
2.88
1.82
1.09
0.55
-0.02
-0.84
-2.03
-3.50
-5.04
-6.47
-7.72
-8.92
-10.31
-12.15
-14.58
-17.51
-20.66
-23.61
-25.85
-26.89
-26.35
-24.20
-20.70
-16.39
-11.94
-7.86
-4.44
-1.67
0.63
2.64
4.45
6.00
7.18
7.87
8.01
7.62
6.83
5.90
5.18
5.09
5.85
7.43
9.45
11.34
12.55
12.82
12.19
10.99
9.60
8.29
7.17
6.21
5.35
4.57
3.89
3.33
2.79
2.17
1.33
0.19
-1.22
-2.84
-4.58
-6.43
-8.33
-10.16
-11.71
-12.76
-13.23
-13.27
-13.23
-13.51
-14.36
-15.71
-17.19
-18.29
-18.59
-17.91
-16.32
-13.99
-11.14
-7.94
-4.54
-1.16
1.95
4.52
6.35
7.36
7.61
7.24
6.49
5.62
4.91
4.57
4.72
5.35
6.31
7.35
8.30
9.03
9.55
9.88
10.06
10.11
10.04
9.89
9.75
9.69
9.73
9.86
10.00
10.09
10.06
9.87
9.44
8.68
7.52
5.92
3.93
1.71
-0.58
-2.78
-4.82
-6.74
-8.57
-10.36
-12.14
-13.90
-15.64
-17.35
-19.07
-20.84
-22.72
-24.66
-26.52
-27.98
-28.67
-28.23
-26.48
-23.39
-19.17
-14.10
-8.51
-2.70
3.03
8.41
13.15
17.01
19.86
21.75
22.87
23.47
23.78
23.88
23.75
23.29
22.38
21.02
19.32
17.50
15.77
14.31
13.14
12.16
11.21
10.19
9.08
7.96
6.96
6.16
5.55
5.03
4.41
3.49
2.14
0.39
-1.66
-3.73
-5.59
-7.06
-8.16
-9.10
-10.17
-11.63
-13.56
-15.86
-18.27
-20.45
-22.07
-22.93
-23.01
-22.59
-22.18
-22.45
-23.90
-26.53
-29.62
-31.75
-31.28
-26.96
-18.48
-6.68
6.77
19.96
31.33
39.98
45.72
48.71
49.28
47.77
44.55
40.13
35.18
30.41
26.34
23.17
20.72
18.53
16.11
13.11
9.52
5.71
2.24
-0.35
-1.81
-2.22
-1.93
-1.30
-0.50
0.47
1.71
3.19
4.61
5.61
5.85
5.30
4.22
3.00
1.95
1.13
0.42
-0.38
-1.35
-2.47
-3.64
-4.85
-6.20
-7.85
-9.88
-12.20
-14.47
-16.28
-17.27
-17.38
-16.87
-16.26
-16.12
-16.78
-18.17
-19.84
-21.09
-21.33
-20.25
-18.00
-14.97
-11.64
-8.34
-5.21
-2.30
0.37
2.67
4.41
5.48
5.94
5.97
5.83
5.73
5.78
5.99
6.35
6.86
7.50
8.24
8.98
9.64
10.13
10.43
10.53
10.40
9.98
9.22
8.14
6.81
5.40
4.10
3.06
2.29
1.74
1.30
0.83
0.23
-0.50
-1.31
-2.11
-2.84
-3.48
-4.03
-4.53
-4.99
-5.39
-5.77
-6.20
-6.80
-7.68
-8.95
-10.64
-12.75
-15.18
-17.66
-19.79
-21.03
-20.83
-18.82
-14.99
-9.73
-3.83
1.78
6.29
9.17
10.32
9.93
8.45
6.45
4.59
3.44
3.39
4.56
6.66
9.13
11.31
12.70
13.02
12.37
11.01
9.24
7.32
5.42
3.69
2.29
1.33
0.84
0.74
0.87
0.99
0.89
0.45
-0.38
-1.52
-2.81
-4.08
-5.16
-6.05
-6.79
-7.51
-8.28
-9.11
-9.94
-10.66
-11.28
-11.91
-12.75
-14.00
-15.71
-17.68
-19.55
-20.79
-20.96
-19.79
-17.31
-13.84
-9.86
-5.96
-2.59
0.01
1.89
3.31
4.58
5.91
7.34
8.72
9.86
10.61
10.92
10.78
10.20
9.16
7.70
6.02
4.49
3.56
3.62
4.73
6.60
8.64
10.20
10.80
10.24
8.68
6.53
4.28
2.33
0.90
-0.02
-0.58
-0.97
-1.34
-1.74
-2.20
-2.75
-3.48
-4.53
-5.94
-7.63
-9.41
-11.05
-12.41
-13.54
-14.59
-15.72
-16.90
-17.85
-18.13
-17.39
-15.48
-12.61
-9.25
-5.93
-3.01
-0.67
1.17
2.63
3.86
4.89
5.78
6.57
7.27
7.90
8.48
8.97
9.30
9.46
9.46
9.30
9.04
8.74
8.46
8.25
8.09
7.89
7.53
6.96
6.22
5.52
5.24
5.62
6.69
8.18
9.58
10.39
10.33
9.40
7.87
6.09
4.33
2.63
0.97
-0.72
-2.44
-4.12
-5.63
-6.89
-7.89
-8.68
-9.38
-10.14
-11.12
-12.42
-13.98
-15.56
-16.77
-17.19
-16.49
-14.51
-11.38
-7.38
-2.92
1.56
5.61
8.88
11.08
12.11
12.15
11.54
10.71
10.09
9.86
10.04
10.48
10.96
11.34
11.53
11.52
11.31
10.93
10.46
10.04
9.83
9.99
10.52
11.27
11.98
12.38
12.33
11.90
11.29
10.69
10.19
9.74
9.25
8.65
8.02
7.44
6.89
6.20
5.06
3.24
0.71
-2.24
-5.20
-7.79
-9.85
-11.52
-13.05
-14.63
-16.27
-17.86
-19.27
-20.45
-21.47
-22.37
-23.18
-23.77
-23.99
-23.73
-22.93
-21.59
-19.70
-17.21
-14.09
-10.42
-6.49
-2.67
0.64
3.26
5.28
6.96
8.56
10.17
11.61
12.57
12.70
11.88
10.19
7.92
5.39
2.89
0.59
-1.42
-3.09
-4.38
-5.29
-5.85
-6.13
-6.25
-6.31
-6.38
-6.51
-6.71
-6.96
-7.22
-7.40
-7.36
-6.97
-6.14
-4.90
-3.37
-1.66
0.07
1.76
3.27
4.49
5.26
5.40
4.88
3.76
2.24
0.55
-1.15
-2.80
-4.42
-6.00
-7.42
-8.47
-8.94
-8.71
-7.84
-6.53
-5.00
-3.41
-1.83
-0.25
1.32
2.81
4.11
5.18
6.04
6.77
7.48
8.18
8.79
9.24
9.45
9.46
9.38
9.32
9.26
9.15
8.93
8.62
8.40
8.48
8.94
9.75
10.63
11.22
11.24
10.58
9.39
8.02
6.83
6.04
5.68
5.57
5.46
5.13
4.46
3.44
2.13
0.63
-0.90
-2.27
-3.33
-3.99
-4.33
-4.61
-5.14
-6.10
-7.44
-8.88
-10.07
-10.82
-11.21
-11.52
-12.16
-13.30
-14.94
-16.78
-18.47
-19.75
-20.47
-20.64
-20.25
-19.30
-17.68
-15.34
-12.33
-8.87
-5.27
-1.87
1.05
3.39
5.16
6.45
7.37
7.99
8.35
8.51
8.57
8.60
8.65
8.73
8.78
8.77
8.69
8.64
8.69
8.86
9.00
8.86
8.17
6.84
4.99
2.99
1.30
0.30
0.16
0.77
1.75
2.54
2.60
1.58
-0.46
-2.96
-5.05
-5.80
-4.62
-1.51
2.93
7.83
12.36
16.02
18.64
20.20
