1579817346.00
64.000000
-0.00
-0.00
-0.00
-0.00
-0.00
-0.00
-0.00
-0.00
-0.00
-0.00
0.00
0.01
0.01
-0.00
-0.03
-0.05
-0.05
0.00
0.13
0.36
0.66
1.01
1.37
1.72
2.06
2.40
2.79
3.24
3.80
4.42
5.06
5.66
6.20
6.68
7.15
7.68
8.31
9.14
10.09
11.04
11.88
12.56
13.14
13.76
14.65
15.96
17.91
20.32
22.90
25.38
27.58
29.57
31.68
34.32
37.82
42.54
48.15
54.10
59.83
64.97
69.59
74.17
79.39
85.75
93.78
102.94
112.45
121.42
129.31
136.19
142.69
150.11
157.14
166.00
177.25
190.99
206.04
219.52
227.13
224.23
207.43
175.80
131.66
78.80
21.56
-36.78
-94.58
-151.49
-207.60
-262.67
-315.99
-366.25
-412.63
-454.44
-490.95
-521.04
-543.11
-555.31
-555.97
-544.27
-520.34
-485.63
-442.27
-392.65
-338.95
-283.01
-226.31
-170.28
-116.38
-66.06
-20.76
18.59
51.71
78.95
101.07
118.91
133.08
143.85
151.24
155.01
154.92
150.87
143.26
133.33
123.35
116.29
114.88
120.47
132.18
147.12
161.33
171.36
175.41
173.61
167.41
158.55
148.23
136.99
125.11
112.98
101.30
90.79
81.78
74.10
67.15
60.41
53.41
46.17
39.09
32.72
27.55
23.74
21.08
19.08
17.20
14.96
12.21
9.13
6.08
3.43
1.42
0.02
-0.97
-1.78
-2.62
-3.47
-4.22
-4.75
-4.96
-4.92
-4.77
-4.65
-4.68
-4.96
-5.48
-6.11
-6.58
-6.51
-5.66
-4.03
-2.01
-0.23
0.70
0.52
-0.57
-2.08
-3.43
-4.35
-4.83
-5.06
-5.18
-5.21
-5.05
-4.68
-4.16
-3.66
-3.32
-3.16
-3.05
-2.88
-2.54
-2.06
-1.54
-1.09
-0.79
-0.67
-0.65
-0.65
-0.59
-0.42
-0.17
0.06
0.18
0.18
0.12
0.13
0.32
0.70
1.22
1.76
2.28
2.79
3.38
4.10
4.94
5.78
6.51
7.07
7.44
7.72
8.02
8.37
8.69
8.81
8.53
7.74
6.44
4.82
2.97
1.04
-0.88
-2.78
-4.59
-6.27
-7.72
-8.85
-9.62
-10.02
-10.08
-9.86
-9.38
-8.72
-7.95
-7.18
-6.49
-5.92
-5.49
-5.20
-5.09
-5.16
-5.38
-5.62
-5.72
-5.51
-4.96
-4.19
-3.40
-2.79
-2.44
-2.34
-2.36
-2.43
-2.51
-2.60
-2.69
-2.74
-2.71
-2.59
-2.39
-2.21
-2.09
-2.08
-2.17
-2.31
-2.43
-2.50
-2.53
-2.54
-2.58
-2.62
-2.63
-2.51
-2.19
-1.64
-0.92
-0.15
0.53
1.05
1.42
1.70
1.98
2.20
2.32
2.26
2.00
1.60
1.19
0.94
0.93
1.13
1.40
1.58
1.55
1.30
0.92
0.58
0.35
0.26
0.20
0.06
-0.22
-0.63
-1.10
-1.51
-1.77
-1.87
-1.91
-1.99
-2.27
-2.82
-3.61
-4.54
-5.47
-6.24
-6.75
-6.94
-6.84
-6.48
-5.90
-5.16
-4.37
-3.67
-3.19
-3.02
-3.13
-3.37
-3.57
-3.55
-3.23
-2.59
-1.63
-0.39
1.08
2.66
4.21
5.56
6.64
7.48
8.20
8.92
9.68
10.39
10.92
11.14
10.99
10.49
9.73
8.86
8.01
7.36
6.95
6.73
6.44
5.73
4.25
1.87
-1.23
-4.62
-7.67
-9.84
-10.81
-10.59
-9.45
-7.83
-6.13
-4.60
-3.36
-2.41
-1.71
-1.27
-1.14
-1.35
-1.92
-2.77
-3.79
-4.76
-5.47
-5.72
-5.35
-4.32
-2.79
-1.04
0.57
1.75
2.34
2.41
2.10
1.55
0.85
0.00
-0.94
-1.87
-2.59
-2.95
-2.86
-2.42
-1.81
-1.24
-0.88
-0.76
-0.89
-1.25
-1.81
-2.53
-3.29
-3.89
-4.12
-3.87
-3.11
-1.99
-0.70
0.58
1.73
2.71
3.49
4.08
4.47
4.71
4.84
4.88
4.86
4.76
4.58
4.34
4.08
3.86
3.73
3.66
3.63
3.62
3.59
3.57
3.59
3.64
3.70
3.71
3.61
3.36
2.97
2.49
2.01
1.64
1.44
1.39
1.41
1.35
1.05
0.44
-0.41
-1.37
-2.25
-2.90
-3.31
-3.53
-3.68
-3.80
-3.86
-3.77
-3.42
-2.78
-1.91
-0.91
0.14
1.16
2.09
2.84
3.35
3.54
3.46
3.22
3.03
3.03
3.26
3.62
3.92
4.01
3.84
3.47
3.02
2.63
2.37
2.27
2.29
2.37
2.38
2.22
1.83
1.21
0.48
-0.25
-0.89
-1.46
-2.02
-2.67
-3.39
-4.10
-4.67
-5.00
-5.07
-4.93
-4.64
-4.21
-3.60
-2.77
-1.75
-0.65
0.39
1.25
1.88
2.32
2.62
2.82
2.93
2.93
2.84
2.70
2.60
2.59
2.66
2.73
2.75
2.66
2.50
2.30
2.12
1.96
1.84
1.72
1.63
1.56
1.51
1.41
1.21
0.87
0.39
-0.15
-0.67
-1.11
-1.49
-1.90
-2.40
-3.01
-3.70
-4.37
-4.97
-5.40
-5.63
-5.56
-5.16
-4.44
-3.46
-2.34
-1.21
-0.15
0.84
1.72
2.48
3.04
3.36
3.43
3.32
3.12
2.92
2.77
2.62
2.46
2.30
2.16
2.06
1.97
1.83
1.60
1.29
1.02
0.90
1.01
1.33
1.75
2.14
2.35
2.27
1.85
1.10
0.14
-0.86
-1.67
-2.11
-2.15
-1.89
-1.57
-1.46
-1.71
-2.35
-3.27
-4.28
-5.18
-5.77
-5.93
-5.57
-4.74
-3.58
-2.30
-1.10
-0.16
0.52
0.97
1.31
1.64
2.02
2.44
2.83
3.11
3.18
3.00
2.56
1.98
1.39
0.93
0.68
0.63
0.69
0.75
0.78
0.77
0.80
0.89
1.04
1.14
1.10
0.86
0.50
0.15
-0.01
0.10
0.42
0.77
0.92
0.66
-0.04
-1.08
-2.25
-3.29
-4.09
-4.58
-4.81
-4.79
-4.53
-3.98
-3.12
-2.03
-0.89
0.06
0.60
0.63
0.21
-0.47
-1.21
-1.83
-2.21
-2.33
-2.21
-1.90
-1.46
-0.97
-0.52
-0.17
0.08
0.21
0.27
0.27
0.26
0.24
0.26
0.36
0.59
0.93
1.35
1.74
2.01
2.12
2.05
1.82
1.47
1.04
0.58
0.17
-0.09
-0.16
-0.03
0.14
0.16
-0.19
-0.99
-2.14
-3.41
-4.48
-5.12
-5.20
-4.76
-3.95
-2.94
-1.87
-0.83
0.10
0.88
1.44
1.77
1.87
1.87
1.88
2.05
2.44
3.02
3.66
4.19
4.47
4.45
4.21
3.88
3.63
3.52
3.57
3.67
3.72
3.64
3.43
3.12
2.80
2.51
2.24
1.93
1.53
1.04
0.47
-0.10
-0.65
-1.17
-1.67
-2.15
-2.60
-3.02
-3.42
-3.84
-4.30
-4.74
-5.05
-5.08
-4.77
-4.13
-3.28
-2.38
-1.48
-0.61
0.26
1.11
1.83
2.32
2.51
2.45
2.29
2.22
2.34
2.68
3.16
3.66
4.04
4.22
4.16
3.85
3.37
2.81
2.32
1.98
1.82
1.78
1.75
1.62
1.35
0.97
0.53
0.07
-0.41
-0.95
-1.57
-2.26
-2.95
-3.53
-3.97
-4.28
-4.56
-4.91
-5.33
-5.72
-5.88
-5.61
-4.86
-3.74
-2.51
-1.45
-0.71
-0.26
0.07
0.44
0.91
1.35
1.57
1.46
1.06
0.60
0.36
0.49
0.98
1.61
2.12
2.31
2.19
1.90
1.63
1.55
1.69
1.94
2.13
2.13
1.89
1.47
1.00
0.59
0.30
0.07
-0.17
-0.48
-0.84
-1.21
-1.53
-1.85
-2.26
-2.87
-3.72
-4.74
-5.77
-6.59
-7.04
-7.04
-6.61
-5.87
-4.95
-3.99
-3.09
-2.33
-1.79
-1.52
-1.54
-1.84
-2.34
-2.93
-3.49
-3.92
-4.18
-4.28
-4.29
-4.31
-4.40
-4.58
-4.83
-5.13
-5.44
-5.73
-5.95
-6.06
-5.99
-5.68
-5.07
-4.12
-2.80
-1.16
0.75
2.77
4.70
6.38
7.69
8.59
9.13
9.37
9.34
9.06
8.54
7.80
6.93
5.99
5.05
4.13
3.25
2.41
1.66
1.12
0.91
1.12
1.74
2.63
3.58
4.37
4.86
5.07
5.10
5.09
5.08
5.06
4.91
4.59
4.15
3.74
3.54
3.62
3.91
4.21
4.32
4.12
3.68
3.15
2.73
2.48
2.38
2.32
2.20
2.00
1.78
1.62
1.52
1.38
1.04
0.44
-0.37
-1.22
-1.89
-2.29
-2.42
-2.44
-2.52
-2.74
-3.13
-3.63
-4.19
-4.75
-5.24
-5.56
-5.58
-5.16
-4.29
-3.07
-1.74
-0.57
0.19
0.50
0.45
0.30
0.29
0.56
1.08
1.72
2.28
2.61
2.68
2.59
2.45
2.36
2.33
2.29
2.18
1.98
1.72
1.50
1.34
1.26
1.20
1.15
1.09
1.05
1.04
1.02
0.92
0.67
0.26
-0.25
-0.74
-1.14
-1.42
-1.64
-1.94
-2.39
-3.06
-3.89
-4.80
-5.67
-6.39
-6.83
-6.93
-6.62
-5.91
-4.87
-3.63
-2.40
-1.37
-0.65
-0.26
-0.10
-0.02
0.17
0.54
1.13
1.83
2.50
2.98
3.16
3.05
2.75
2.47
2.38
2.56
2.99
3.55
4.08
4.50
4.72
4.73
4.48
3.98
3.29
2.53
1.87
1.43
1.24
1.19
1.13
0.89
0.42
-0.23
-0.93
-1.59
-2.14
-2.59
-2.99
-3.42
-3.90
-4.46
-5.02
-5.49
-5.75
-5.72
-5.35
-4.66
-3.74
-2.72
-1.76
-1.01
-0.52
-0.24
-0.03
0.26
0.69
1.20
1.63
1.89
1.97
2.00
2.10
2.32
2.58
2.74
2.75
2.67
2.66
2.82
3.12
3.37
3.39
3.09
2.59
2.08
1.71
1.50
1.35
1.15
0.89
0.61
0.36
0.14
-0.19
-0.72
-1.47
-2.31
-3.04
-3.56
-3.89
-4.16
-4.51
-4.95
-5.35
-5.49
-5.25
-4.64
-3.78
-2.88
-2.07
-1.43
-0.91
-0.46
-0.05
0.34
0.73
1.13
1.55
1.99
2.43
2.86
3.23
3.53
3.73
3.83
3.84
3.76
3.60
3.38
3.10
2.78
2.47
2.22
2.09
2.06
2.10
2.12
2.05
1.87
1.63
1.36
1.08
0.76
0.35
-0.17
-0.74
-1.23
-1.56
-1.70
-1.78
-1.93
-2.29
-2.88
-3.62
-4.35
-4.94
-5.31
-5.44
-5.33
-5.00
-4.43
-3.64
-2.71
-1.73
-0.87
-0.19
0.32
0.78
1.31
1.92
2.56
3.02
3.17
2.98
2.60
2.25
2.13
2.24
2.46
2.60
2.58
2.46
2.40
2.57
2.97
3.46
3.79
3.73
3.17
2.21
1.07
0.07
-0.57
-0.74
-0.53
-0.15
0.17
0.26
0.12
-0.14
-0.36
-0.48
-0.57
-0.78
-1.22
-1.94
-2.86
-3.83
-4.67
-5.26
-5.52
-5.48
-5.18
-4.72
-4.17
-3.55
-2.84
-2.05
-1.17
-0.30
0.44
0.94
1.13
1.05
0.78
0.46
0.24
0.21
0.42
0.82
1.29
1.70
1.96
2.04
2.01
1.96
1.99
2.11
2.25
2.33
2.28
2.10
1.84
1.56
1.32
1.11
0.91
0.66
0.36
-0.00
-0.41
-0.82
-1.22
-1.61
-2.03
-2.53
-3.11
-3.74
-4.34
-4.80
-5.03
-4.95
-4.54
-3.85
-2.98
-2.05
-1.19
-0.53
-0.15
-0.06
-0.15
-0.27
-0.24
0.06
0.64
1.41
2.21
2.89
3.36
3.60
3.65
3.57
3.43
3.29
3.18
3.16
3.22
3.35
3.50
3.57
3.50
3.26
2.85
2.30
1.66
0.99
0.38
-0.09
-0.38
-0.48
-0.50
-0.58
-0.85
-1.39
-2.18
-3.07
-3.89
-4.50
-4.85
-4.99
-5.00
-4.93
-4.78
-4.44
-3.83
-2.93
-1.82
-0.69
0.24
0.84
1.10
1.10
1.02
0.96
1.00
1.11
1.27
1.47
1.74
2.15
2.69
3.29
3.79
4.04
3.98
3.62
3.12
2.64
2.31
2.15
2.12
2.15
2.17
2.15
2.09
1.97
1.74
1.35
0.76
0.01
-0.84
-1.68
-2.43
-3.05
-3.51
-3.80
-3.94
-3.94
-3.83
-3.68
-3.55
-3.47
-3.41
-3.30
-3.04
-2.52
-1.72
-0.65
0.60
1.87
3.00
3.86
4.33
4.42
4.21
3.85
3.52
3.37
3.50
3.90
4.51
5.17
5.69
5.89
5.65
4.96
3.89
2.60
1.25
-0.02
-1.09
-1.87
-2.32
-2.43
-2.26
-1.92
-1.60
-1.46
-1.63
-2.15
-2.93
-3.82
-4.64
-5.27
-5.65
-5.86
-6.04
-6.31
-6.74
-7.25
-7.66
-7.78
-7.48
-6.74
-5.61
-4.26
-2.83
-1.44
-0.19
0.83
1.59
2.07
2.30
2.35
2.27
2.14
2.04
2.05
2.23
2.57
3.02
3.47
3.80
3.96
3.98
3.95
3.95
4.00
4.06
4.02
3.77
3.27
2.58
1.84
1.24
0.92
0.94
1.22
1.57
1.79
1.76
1.43
0.91
0.32
-0.20
-0.60
-0.87
-1.06
-1.24
-1.47
-1.79
-2.26
-2.87
-3.60
-4.37
-5.09
-5.62
-5.90
-5.87
-5.48
-4.78
-3.83
-2.74
-1.66
-0.67
0.19
0.93
1.55
2.03
2.29
2.28
2.02
1.64
1.36
1.34
1.62
2.06
2.46
2.66
2.62
2.46
2.32
2.29
2.36
2.43
2.42
2.33
2.22
2.20
2.29
2.44
2.52
2.44
2.20
1.85
1.49
1.20
1.00
0.83
0.61
0.30
-0.09
-0.50
-0.87
-1.20
-1.50
-1.86
-2.32
-2.88
-3.46
-3.98
-4.36
-4.57
-4.64
-4.59
-4.43
-4.15
-3.68
-2.99
-2.10
-1.11
-0.16
0.61
1.09
1.25
1.14
0.86
0.54
0.33
0.31
0.53
0.98
1.56
2.16
2.63
2.89
2.89
2.70
2.41
2.11
1.84
1.59
1.32
1.00
0.67
0.38
0.20
0.12
0.09
0.07
0.02
-0.03
-0.01
0.07
0.18
0.21
0.09
-0.21
-0.64
-1.13
-1.61
-2.08
-2.59
-3.15
-3.74
-4.28
-4.67
-4.87
-4.93
-4.93
-4.94
-4.95
-4.84
-4.46
-3.70
-2.62
-1.39
-0.26
0.58
1.05
1.22
1.23
1.22
1.25
1.32
1.43
1.58
1.81
2.11
2.47
2.83
3.11
3.31
3.44
3.56
3.70
3.83
3.89
3.79
3.49
3.02
2.48
1.98
1.61
1.39
1.28
1.20
1.09
0.94
0.73
0.48
0.19
-0.16
-0.58
-1.04
-1.48
-1.85
-2.14
-2.43
-2.81
-3.35
-4.03
-4.70
-5.18
-5.35
-5.18
-4.76
-4.22
-3.63
-3.00
-2.30
-1.54
-0.79
-0.19
0.17
0.29
0.31
0.38
0.64
1.13
1.74
2.32
2.74
2.97
3.04
3.04
3.02
3.01
2.98
2.91
2.78
2.60
2.39
2.15
1.90
1.67
1.50
1.40
1.39
1.42
1.39
1.22
0.82
0.21
-0.50
-1.19
-1.72
-2.01
-2.11
-2.11
-2.10
-2.15
-2.23
-2.31
-2.36
-2.43
-2.61
-2.97
-3.49
-4.08
-4.57
-4.78
-4.62
-4.08
-3.26
-2.30
-1.33
-0.45
0.33
0.99
1.52
1.89
2.05
2.00
1.76
1.42
1.09
0.86
0.74
0.75
0.85
1.06
1.37
1.74
2.08
2.30
2.33
2.19
1.98
1.83
1.78
1.78
1.73
1.52
1.10
0.56
0.01
-0.42
-0.67
-0.76
-0.80
-0.89
-1.14
-1.59
-2.23
-2.99
-3.76
-4.43
-4.90
-5.12
-5.10
-4.90
-4.58
-4.17
-3.65
-3.00
-2.26
-1.51
-0.86
-0.39
-0.09
0.15
0.48
0.96
1.58
2.21
2.72
2.99
3.02
2.88
2.69
2.55
2.51
2.57
2.70
2.85
2.98
3.07
3.11
3.10
3.03
2.89
2.64
2.27
1.78
1.20
0.61
0.06
-0.41
-0.82
-1.18
-1.52
-1.85
-2.15
-2.40
-2.60
-2.78
-2.97
-3.24
-3.59
-4.03
-4.45
-4.75
-4.79
-4.50
-3.91
-3.12
-2.29
-1.54
-0.95
-0.49
-0.10
0.27
0.63
0.97
1.26
1.51
1.73
1.99
2.27
2.54
2.73
2.80
2.73
2.58
2.42
2.32
2.32
2.39
2.50
2.59
2.61
2.53
2.34
2.08
1.83
1.64
1.51
1.37
1.14
0.77
0.31
-0.12
-0.38
-0.45
-0.43
-0.51
-0.84
-1.42
-2.12
-2.75
-3.16
-3.35
-3.42
-3.50
-3.61
-3.69
-3.62
-3.29
-2.72
-1.96
-1.13
-0.31
0.46
1.15
1.74
2.15
2.34
2.31
2.14
1.96
1.89
1.96
2.14
2.33
2.42
2.36
2.20
2.02
1.92
1.93
2.06
2.21
2.29
2.23
2.05
1.79
1.54
1.33
1.18
1.05
0.88
0.68
0.46
0.26
0.12
0.02
-0.08
-0.25
-0.55
-1.01
-1.62
-2.32
-3.03
-3.67
-4.18
-4.52
-4.68
-4.63
-4.33
-3.77
-2.96
-2.02
-1.08
-0.33
0.16
0.38
0.47
0.61
0.88
1.30
1.77
2.17
2.46
2.67
2.84
2.98
3.08
3.06
2.85
2.49
2.07
1.72
1.52
1.51
1.64
1.82
1.94
1.95
1.82
1.54
1.13
0.65
0.15
-0.30
-0.67
-0.97
-1.25
-1.55
-1.89
-2.27
-2.67
-3.05
-3.44
-3.88
-4.38
-4.91
-5.37
-5.60
-5.52
-5.08
-4.36
-3.47
-2.51
-1.53
-0.58
0.32
1.08
1.64
1.94
1.99
1.87
1.70
1.58
1.59
1.74
2.00
2.35
2.69
2.98
3.14
3.17
3.09
2.91
2.67
2.36
2.02
1.67
1.40
1.26
1.23
1.19
1.02
0.61
-0.02
-0.74
-1.39
-1.85
-2.08
-2.17
-2.24
-2.38
-2.66
-3.09
-3.68
-4.43
-5.30
-6.22
-7.09
-7.84
-8.42
-8.81
-9.05
-9.19
-9.25
-9.26
-9.20
-9.04
-8.79
-8.45
-8.06
-7.63
-7.08
-6.25
-4.95
-3.06
-0.68
1.98
4.59
6.89
8.80
10.34
11.64
12.75
13.62
14.15
14.29
14.06
13.60
13.05
12.52
12.05
11.58
11.03
10.36
9.58
8.70
7.79
6.90
6.09
5.36
4.69
4.01
3.25
2.40
1.50
0.65
-0.12
-0.82
-1.58
-2.53
-3.70
-5.04
-6.33
-7.39
-8.06
-8.32
-8.29
-8.08
-7.80
-7.50
-7.23
-7.04
-6.98
-7.08
-7.29
-7.50
-7.54
-7.32
-6.82
-6.22
-5.72
-5.51
-5.65
-6.03
-6.43
-6.62
-6.51
-6.11
-5.61
-5.21
-5.04
-5.12
-5.42
-5.84
-6.35
-6.90
-7.48
-8.05
-8.55
-8.89
-9.01
-8.87
-8.48
-7.88
-7.12
-6.21
-5.08
-3.59
-1.52
1.35
5.12
9.65
14.56
19.32
23.47
26.76
29.24
31.27
33.25
35.55
38.29
41.31
44.19
46.34
47.15
46.10
42.99
38.00
31.71
24.90
18.28
12.18
6.45
0.67
-5.51
-12.11
-18.74
-24.90
-30.31
-35.19
-40.26
-46.47
-54.70
-65.48
-78.89
-94.39
-110.76
-125.98
-137.56
-143.05
-140.85
-130.87
-114.78
-95.36
-75.57
-57.45
-41.63
-27.60
-14.38
-1.40
11.12
22.28
31.09
37.01
40.07
40.66
39.05
35.09
28.30
18.34
5.69
-8.15
-20.88
-30.08
-34.16
-32.81
-26.99
-18.43
-8.81
0.79
10.09
19.28
28.54
37.75
46.40
53.93
60.16
65.36
70.14
74.99
79.96
84.64
88.44
91.03
92.64
94.11
96.46
100.51
106.37
113.35
120.12
125.00
126.34
122.90
114.15
100.59
83.73
65.69
48.59
33.85
21.76
11.65
2.42
-6.79
-16.19
-25.33
-33.45
-39.97
-44.73
-47.94
-49.92
-50.86
-50.76
-49.57
-47.32
-44.25
-40.81
-37.58
-35.03
-33.47
-32.96
-33.26
-33.95
-34.55
-34.61
-33.76
-31.86
-28.91
-25.06
-20.55
-15.56
-10.14
-4.24
2.17
8.96
15.72
21.88
26.83
30.24
32.10
32.74
32.56
31.82
30.40
27.89
23.78
17.75
9.95
1.03
-7.98
-16.00
-22.26
-26.48
-28.96
-30.30
-31.07
-31.61
-31.80
-31.24
-29.48
-26.23
-21.63
-16.26
-11.08
-7.19
-5.47
-6.32
-9.33
-13.48
-17.38
-19.79
-19.97
-17.87
-13.98
-9.04
-3.82
1.05
5.09
7.96
9.50
9.78
9.09
7.84
6.46
5.25
4.33
3.63
2.93
1.92
0.35
-1.84
-4.39
-6.67
-7.88
-7.40
-5.08
-1.34
2.99
7.04
10.20
12.36
13.79
14.98
16.41
18.31
20.62
22.96
24.80
25.63
25.24
23.87
22.16
20.95
20.90
22.21
24.51
27.01
28.82
29.26
28.05
25.30
21.36
16.67
11.68
6.81
2.48
-0.90
-3.11
-4.18
-4.44
-4.43
-4.65
-5.38
-6.71
-8.67
-11.39
-15.17
-20.32
-26.91
-34.49
-42.21
-49.00
-54.00
-56.83
-57.60
-56.77
-54.85
-52.24
-49.19
-45.80
-42.15
-38.24
-34.03
-29.42
-24.28
-18.52
-12.17
-5.33
1.79
9.02
16.14
22.91
29.06
34.28
38.36
41.28
43.25
44.62
45.76
46.81
47.63
47.78
46.81
44.48
40.90
36.48
31.72
26.97
22.32
17.63
12.73
7.58
2.23
-3.22
-8.73
-14.34
-20.10
-25.87
-31.27
-35.75
-38.81
-40.24
-40.18
-39.13
-37.74
-36.55
-35.86
-35.60
-35.33
-34.45
-32.36
-28.69
-23.41
-16.85
-9.51
-1.97
5.29
11.97
17.87
22.87
26.87
29.85
31.83
32.91
33.21
32.79
31.72
30.07
28.02
25.79
23.60
21.53
19.40
16.76
13.18
8.38
2.48
-3.99
-10.30
-15.70
-19.73
-22.37
-24.00
-25.17
-26.34
-27.74
-29.29
-30.75
-31.86
-32.43
-32.54
-32.33
-31.94
-31.43
-30.83
-30.15
-29.41
-28.60
-27.65
-26.63
-25.62
-24.74
-24.07
-23.75
-23.89
-24.45
-25.20
-25.72
-26.01
-26.14
-26.14
-25.87
-25.25
-24.40
-23.56
-22.85
-21.94
-20.49
-17.78
-12.96
-5.56
3.78
13.38
21.38
26.61
28.84
27.41
21.55
10.64
-4.96
-23.80
-43.73
-62.85
-80.43
-91.53
-93.34
-85.83
-71.58
-53.39
-32.87
-10.92
11.30
32.55
52.14
69.20
82.90
91.97
94.65
89.20
75.39
55.65
35.15
20.27
15.14
20.12
31.48
43.84
52.12
53.65
48.98
41.27
34.40
30.46
29.24
28.74
26.41
20.55
10.90
-1.36
-14.01
-24.57
-31.50
-34.40
-33.88
-31.33
-27.95
-24.07
-20.45
-18.01
-17.78
-20.80
-28.02
-38.13
-49.86
-61.09
-69.71
-74.49
-75.11
-71.82
-64.76
-53.19
-35.54
-10.76
20.67
55.72
89.49
117.36
137.18
150.20
160.14
170.70
182.88
194.51
201.53
200.68
191.84
177.80
162.25
146.81
129.46
105.45
70.80
25.67
-24.60
-71.55
-107.79
-130.33
-141.31
-145.70
-147.73
-147.98
-143.60
-130.83
-107.90
-76.73
-41.77
-8.05
20.13
39.22
46.02
37.62
12.46
-28.07
-78.72
-130.37
-172.55
-197.23
-201.65
-188.59
-164.62
-137.46
-113.61
-97.01
-87.57
-81.64
-74.22
-61.27
-40.85
-12.92
21.31
60.19
99.50
131.23
148.41
149.29
136.31
113.16
83.93
53.31
27.85
9.57
0.01
-0.22
8.00
22.12
39.03
56.34
71.28
82.23
88.14
89.41
87.33
83.28
78.02
71.79
64.75
57.08
49.10
40.78
32.38
24.27
16.74
9.92
3.87
-1.22
-5.19
-7.99
-10.08
-11.88
-13.71
-15.67
-17.63
-19.28
-20.26
-20.35
-19.53
-18.12
-16.45
-14.75
-13.06
-11.37
-9.59
-7.71
-5.78
-3.85
-2.05
-0.37
1.25
2.95
4.80
6.79
8.73
10.34
11.34
11.62
11.26
10.52
9.63
8.62
7.21
4.91
1.27
-3.92
-10.46
-17.75
-25.05
-31.71
-37.29
-41.65
-44.82
-46.98
-48.44
-49.68
-51.26
-53.61
-56.73
-59.97
-62.14
-61.99
-58.84
-52.99
-45.64
-38.30
-32.15
-27.57
-24.21
-21.35
-18.45
-15.34
-12.11
-8.86
-5.48
-1.66
2.88
8.19
13.95
19.66
24.80
29.03
32.19
34.12
34.57
33.11
29.31
23.03
14.67
5.22
-4.06
-11.96
-17.71
-21.02
-21.97
-20.77
-17.64
-12.92
-7.18
-1.22
4.10
8.17
10.82
12.30
13.03
13.37
13.52
13.64
14.03
15.21
17.76
21.94
27.28
32.43
35.38
34.04
27.08
14.51
-2.11
-20.12
-36.46
-48.42
-54.19
-52.89
-44.54
-29.96
-10.72
10.84
31.96
50.02
63.27
71.34
75.24
76.78
77.76
79.16
80.80
81.51
79.67
73.95
63.90
50.27
34.76
19.50
6.32
-3.87
-11.19
-16.66
-21.62
-27.24
-34.08
-42.05
-50.55
-58.69
-65.64
-70.80
-73.86
-74.83
-73.96
-71.64
-68.39
-64.82
-61.70
-59.81
-59.70
-61.34
-63.98
-66.22
-66.48
-63.60
-57.26
-47.97
-36.83
-24.96
-13.29
-2.43
7.16
15.04
20.83
24.42
26.15
26.84
27.57
29.27
32.33
36.52
41.17
45.56
49.23
52.12
54.45
56.40
57.87
58.38
57.36
54.49
50.10
45.17
40.99
38.64
38.47
39.97
42.00
43.38
43.29
41.55
38.51
34.82
31.21
28.37
26.79
26.73
28.05
30.18
32.18
33.08
32.21
29.48
25.39
20.79
16.53
13.18
10.86
9.36
8.31
7.34
6.16
4.60
2.57
0.02
-3.02
-6.40
-9.88
-13.25
-16.40
-19.47
-22.77
-26.62
-31.05
-35.71
-39.89
-42.84
-44.16
-43.93
-42.72
-41.17
-39.75
-38.61
-37.75
-37.31
-37.71
-39.64
-43.74
-50.27
-58.86
-68.54
-77.91
-85.54
-90.23
-91.24
-88.39
-82.01
-72.80
-61.68
-49.63
-37.52
-26.01
-15.50
-6.16
2.08
9.36
15.78
21.22
25.41
28.03
28.90
28.16
26.18
23.45
20.32
16.91
13.17
9.01
4.40
-0.49
-5.39
-9.92
-13.60
-15.81
-15.77
-12.79
-6.62
2.12
11.72
19.73
23.64
21.95
14.80
3.92
-8.06
-18.66
-26.46
-31.25
-33.68
-34.65
-34.80
-34.41
-33.65
-32.76
-32.07
-31.81
-31.85
-31.57
-30.13
-26.84
-21.48
-14.44
-6.58
1.06
7.62
12.56
15.78
17.52
18.19
18.14
17.60
16.61
15.09
13.01
10.42
7.45
4.34
1.30
-1.62
-4.49
-7.39
-10.22
-12.50
-13.55
-12.72
-9.81
-5.24
0.05
5.01
9.08
12.51
16.28
21.39
28.39
37.28
47.74
59.39
71.93
85.09
98.49
111.50
122.98
131.62
136.66
138.12
136.68
133.25
128.75
124.09
120.09
116.71
112.84
106.86
97.22
83.02
64.24
41.94
18.06
-5.35
-27.36
-48.63
-70.13
-92.26
-114.68
-137.29
-160.60
-185.88
-208.81
-223.69
-226.43
-216.04
-193.97
-162.53
-125.19
-86.33
-50.01
-19.22
7.71
32.02
54.33
74.25
90.53
100.88
103.62
99.23
87.28
70.51
52.14
35.13
19.79
7.99
1.06
-0.93
1.03
5.42
10.67
14.80
16.71
16.66
16.10
16.15
17.00
18.00
18.65
18.17
15.95
11.96
6.71
1.03
-4.58
-9.88
-14.52
-18.04
-19.96
-20.17
-18.79
-16.18
-12.63
-8.78
-5.39
-3.23
-2.89
-4.57
-8.05
-12.69
-17.65
-22.04
-25.26
-27.05
-27.45
-26.60
-24.78
-22.26
-19.45
-16.82
-14.82
-13.77
-13.65
-14.08
-14.46
-14.27
-13.22
-11.26
-8.52
-5.08
-0.95
3.78
8.80
13.45
16.86
18.24
17.20
13.81
8.67
2.63
-3.33
-8.28
-11.45
-12.33
-10.79
-7.07
-1.79
4.24
10.19
15.35
19.19
21.45
22.04
21.11
18.95
15.88
12.23
8.24
4.08
-0.05
-3.92
-7.28
-9.94
-11.85
-13.06
-13.70
-13.96
-14.08
-14.25
-14.57
-14.88
-14.73
-13.51
-10.68
-6.10
-0.16
6.29
12.23
16.81
19.43
19.80
17.83
13.63
7.54
0.20
-7.42
-14.21
-19.13
-21.46
-20.90
-17.60
-11.98
-4.64
3.78
12.68
21.50
29.79
37.17
43.34
48.06
51.20
52.76
52.87
51.84
50.09
48.07
46.15
44.52
43.14
41.75
39.97
37.49
34.17
30.13
25.73
21.41
17.60
14.64
12.63
11.48
10.83
10.15
8.85
6.53
3.06
-1.38
-6.54
-12.30
-18.89
-26.83
-36.64
-48.45
-61.78
-75.49
-87.96
-97.47
-102.54
-102.21
-96.30
-85.54
-71.45
-56.13
-41.74
-29.93
-21.39
-15.70
-11.53
-7.20
-1.34
6.51
15.82
25.27
33.43
39.29
42.65
43.98
44.17
43.99
43.86
43.83
43.75
43.42
42.65
41.29
39.19
36.22
32.34
27.67
22.48
17.10
11.85
6.93
2.47
-1.52
-5.11
-8.39
-11.47
-14.30
-16.64
-18.09
-18.25
-16.94
-14.38
-11.20
-8.14
-5.79
-4.26
-3.15
-1.85
0.09
2.62
5.24
7.29
8.30
8.24
7.42
6.27
5.07
3.82
2.39
0.72
-1.07
-2.66
-3.72
-4.09
-3.83
-3.20
-2.52
-2.08
-2.04
-2.44
-3.23
-4.29
-5.50
-6.76
-8.00
-9.16
-10.15
-10.84
-11.09
-10.76
-9.79
-8.20
-6.14
-3.78
-1.36
0.89
2.73
3.91
4.21
3.53
1.94
-0.34
-2.86
-5.11
-6.55
-6.77
-5.55
-2.97
0.68
4.86
8.99
12.55
15.23
17.03
18.16
19.00
19.86
20.85
21.87
22.67
23.01
22.76
22.03
21.06
20.16
19.57
19.36
19.44
19.58
19.49
18.94
17.79
16.03
13.78
11.29
8.86
6.80
5.31
4.47
4.26
4.55
5.20
6.09
7.09
8.07
8.79
8.96
8.41
7.18
5.62
4.27
3.65
4.01
5.25
7.01
8.88
10.57
11.95
12.96
13.41
13.00
11.44
8.62
4.70
0.06
-4.85
-9.72
-14.42
-18.99
-23.52
-28.14
-32.88
-37.78
-42.79
-47.81
-52.65
-57.11
-61.03
-64.45
-67.51
-70.36
-72.98
-75.14
-76.41
-76.41
-74.98
-72.29
-68.74
-64.80
-60.80
-56.80
-52.67
-48.23
-43.38
-38.18
-32.84
-27.73
-23.19
-19.50
-16.70
-14.51
-12.38
-9.61
-5.62
-0.17
6.56
14.09
21.86
29.49
36.81
43.90
50.79
57.42
63.58
68.99
73.49
77.12
80.07
82.64
85.00
87.23
89.24
90.96
92.34
93.41
94.15
94.36
93.59
91.09
86.19
78.50
68.24
56.19
43.49
31.20
20.01
10.21
1.82
-5.25
-11.05
-15.64
-19.18
-21.99
-24.44
-26.88
-29.49
-32.35
-35.46
-38.82
-42.38
-45.92
-49.04
-51.22
-52.08
-51.56
-49.95
-47.77
-45.48
-43.34
-41.38
-39.51
-37.66
-35.85
-34.06
-32.15
-29.86
-26.84
-22.91
-18.22
-13.31
-9.01
-6.16
-5.19
-6.01
-7.90
-9.79
-10.58
-9.53
-6.50
-1.86
3.62
9.14
14.05
17.99
20.86
22.67
23.57
23.76
23.52
23.19
23.13
23.57
24.50
25.71
26.88
27.77
28.43
29.13
30.14
31.54
33.02
34.03
34.00
32.67
30.21
27.10
23.90
20.92
18.13
15.23
11.84
7.67
2.69
-2.90
-8.70
-14.28
-19.22
-23.26
-26.33
-28.51
-30.01
-31.08
-31.94
-32.73
-33.44
-33.93
-33.93
-33.17
-31.48
-28.88
-25.60
-21.97
-18.32
-14.88
-11.77
-9.06
-6.82
-5.05
-3.62
-2.24
-0.54
1.82
4.93
8.64
12.56
16.26
19.43
21.99
23.97
25.46
26.51
27.06
26.95
26.00
24.06
21.02
16.97
12.12
6.84
1.46
-3.80
-8.95
-14.19
-19.74
-25.68
-31.86
-37.97
-43.64
-48.65
-52.92
-56.45
-59.17
-60.76
-60.66
-58.29
-53.26
-45.67
-36.18
-25.85
-15.95
-7.68
-1.94
0.73
0.22
-3.17
-8.75
-15.47
-22.14
-27.71
-31.56
-33.62
-34.28
-34.07
-33.39
-32.24
-30.44
-27.77
-24.28
-20.31
-16.30
-12.58
-9.13
-5.64
-1.59
3.38
9.42
16.31
23.57
30.65
37.07
42.48
46.69
49.63
51.39
52.17
52.44
52.77
53.70
55.50
57.99
60.62
62.68
63.49
62.58
59.61
54.32
46.58
36.59
25.17
13.64
3.61
-3.70
-7.89
-9.55
-9.89
-10.21
-11.32
-13.34
-15.87
-18.27
-19.93
-20.45
-19.70
-17.86
-15.37
-12.86
-10.97
-10.20
-10.77
-12.54
-15.15
-18.07
-20.82
-22.98
-24.34
-24.90
-24.85
-24.51
-24.20
-24.18
-24.48
-24.99
-25.48
-25.67
-25.32
-24.20
-22.14
-19.08
-15.13
-10.55
-5.76
-1.14
3.03
6.66
9.80
12.58
15.08
17.20
18.73
19.35
18.80
16.97
14.06
10.48
6.79
3.45
0.66
-1.66
-3.81
-6.14
-8.89
-12.02
-15.39
-18.71
-21.72
-24.17
-25.85
-26.62
-26.54
-25.85
-25.01
-24.55
-24.82
-25.91
-27.60
-29.58
-31.63
-33.78
-36.22
-39.13
-42.53
-46.16
-49.57
-52.20
-53.57
-53.31
-51.16
-47.05
-41.10
-33.63
-25.13
-16.17
-7.26
1.23
9.13
16.34
22.75
28.20
32.50
35.50
37.23
37.88
37.77
37.32
36.86
36.60
36.60
36.80
37.16
37.70
38.52
39.71
41.24
42.91
44.37
45.20
45.09
43.94
41.93
39.48
37.09
35.14
33.79
32.82
31.84
30.38
28.15
25.12
21.50
17.64
13.88
10.49
7.71
5.78
4.96
5.39
7.06
9.75
13.18
17.16
21.58
26.40
31.49
36.50
40.96
44.40
46.50
47.18
46.50
44.58
41.54
37.52
32.69
27.29
21.64
15.99
10.50
5.25
0.34
-4.07
-7.80
-10.74
-12.97
-14.75
-16.36
-17.98
-19.58
-20.90
-21.65
-21.63
-20.91
-19.83
-18.87
-18.43
-18.71
-19.63
-20.91
-22.24
-23.40
-24.35
-25.20
-26.11
-27.20
-28.46
-29.79
-31.10
-32.30
-33.38
-34.31
-35.05
-35.51
-35.61
-35.33
-34.75
-34.03
-33.33
-32.78
-32.45
-32.43
-32.92
-34.10
-36.16
-39.09
-42.68
-46.55
-50.36
-53.98
-57.50
-61.06
-64.61
-67.70
-69.52
-69.06
-65.51
-58.60
-48.78
-37.22
-25.67
-16.01
-9.84
-8.10
-10.74
-16.80
-24.70
-32.73
-39.60
-44.84
-48.72
-52.00
-55.45
-59.51
-64.14
-68.94
-73.42
-77.21
-80.17
-82.49
-84.42
-86.13
-87.39
-87.41
-85.04
-79.13
-69.12
-55.40
-39.35
-22.97
-8.20
3.76
12.75
19.63
25.71
32.11
39.33
47.17
54.99
62.15
68.38
73.80
78.74
83.44
87.86
91.77
94.98
97.65
100.23
103.26
106.94
110.87
114.24
116.16
116.15
114.42
111.74
109.05
107.04
105.87
105.17
104.21
102.23
98.64
93.21
86.01
77.31
67.43
56.72
45.49
34.07
22.77
11.89
1.59
-8.15
-17.47
-26.48
-35.13
-43.13
-49.91
-54.87
-57.60
-58.03
-56.51
-53.63
-50.06
-46.35
-42.84
-39.64
-36.64
-33.68
-30.56
-27.21
-23.73
-20.38
-17.50
-15.28
-13.63
-12.07
-9.88
-6.36
-1.13
5.60
12.99
19.84
24.94
27.51
27.43
25.21
21.77
18.14
15.26
13.76
13.99
15.91
19.07
22.67
25.71
27.24
26.63
23.81
19.31
14.05
8.96
4.73
1.57
-0.73
-2.55
-4.22
-5.90
-7.54
-8.90
-9.69
-9.59
-8.24
-5.25
-0.32
6.66
15.41
25.25
35.20
44.30
51.89
57.73
61.97
64.90
66.77
67.75
67.89
67.27
65.93
63.87
60.95
56.93
51.54
44.71
36.66
27.88
19.01
10.58
2.96
-3.72
-9.46
-14.32
-18.33
-21.57
-24.13
-26.15
-27.79
-29.22
-30.59
-31.99
-33.45
-34.91
-36.27
-37.39
-38.14
-38.43
-38.17
-37.27
-35.64
-33.28
-30.28
-26.94
-23.61
-20.68
-18.39
-16.77
-15.71
-15.04
-14.61
-14.39
-14.42
-14.76
-15.47
-16.58
-18.12
-20.11
-22.55
-25.34
-28.27
-30.98
-33.09
-34.24
-34.24
-33.08
-30.87
-27.70
-23.49
-17.95
-10.66
-1.32
10.09
23.04
36.53
49.12
59.20
65.29
66.41
62.29
53.53
41.59
28.47
16.09
5.65
-2.86
-10.68
-19.88
-32.56
-50.06
-72.25
-97.21
-121.36
-140.22
-149.57
-146.74
-131.60
-106.69
-76.37
-45.40
-17.57
5.12
22.25
34.18
41.24
43.37
40.56
33.48
23.82
13.91
6.04
1.57
0.66
2.40
5.44
8.54
10.94
12.33
12.66
11.95
10.22
7.39
3.43
-1.61
-7.50
-13.76
-19.66
-24.29
-26.83
-26.79
-24.16
-19.33
-12.90
-5.38
2.97
12.10
22.02
32.57
43.33
53.63
62.67
69.71
74.29
76.27
75.93
73.84
70.74
67.31
64.10
61.44
59.51
58.41
58.23
59.03
60.74
63.01
65.16
66.25
65.25
61.40
54.51
45.02
33.98
22.66
12.17
3.17
-4.24
-10.40
-15.77
-20.69
-25.25
-29.28
-32.51
-34.71
-35.67
-35.33
-33.66
-30.80
-27.05
-22.82
-18.64
-14.96
-12.07
-10.04
-8.72
-7.85
-7.17
-6.55
-5.99
-5.66
-5.78
-6.62
-8.34
-11.01
-14.47
-18.33
-21.90
-24.35
-24.94
-23.31
-19.70
-14.92
-10.05
-6.02
-3.30
-1.82
-1.18
-0.94
-0.94
-1.23
-2.00
-3.34
-5.24
-7.56
-10.25
-13.36
-16.96
-21.03
-25.26
-29.11
-31.96
-33.35
-33.31
-32.31
-31.16
-30.65
-31.18
-32.65
-34.49
-35.99
-36.68
-36.47
-35.66
-34.72
-33.96
-33.32
-32.37
-30.52
-27.27
-22.40
-16.07
-8.70
-0.81
7.15
14.88
22.22
29.09
35.50
41.41
46.76
51.49
55.48
58.56
60.50
61.03
59.89
57.01
52.64
47.36
41.94
37.10
33.42
31.12
30.12
30.11
30.80
32.07
33.88
35.95
37.68
38.26
37.00
33.62
28.41
21.99
15.08
7.87
-0.18
-10.10
-22.71
-38.03
-55.15
-72.39
-87.84
-99.32
-105.34
-105.39
-99.90
-89.82
-76.31
-60.73
-44.63
-29.61
-16.04
-4.02
6.39
15.06
22.33
29.11
36.47
44.92
54.33
65.62
79.15
94.28
109.49
123.37
135.16
144.36
150.32
152.50
152.93
154.02
157.37
163.21
170.91
179.55
187.72
193.42
180.94
141.69
79.43
9.32
-52.73
-98.06
-125.38
-137.68
-140.84
-138.71
-131.48
-119.06
-102.71
-85.28
-70.11
-59.36
-53.53
-51.95
-53.05
-53.68
-51.60
-46.51
-40.24
-35.53
-34.72
-39.26
-49.54
-64.57
-81.21
-95.85
-105.57
-109.05
-106.56
-99.46
-89.82
-79.77
-70.68
-62.38
-53.81
-43.83
-32.07
-19.07
-6.10
5.30
13.79
18.73
20.47
20.13
19.11
18.64
19.46
21.64
24.63
27.50
29.40
29.96
29.48
28.81
28.91
30.51
33.79
38.34
43.16
46.65
46.73
41.24
28.73
9.41
-14.25
-37.93
-56.66
-66.59
-66.43
-57.80
-44.48
-30.82
-20.15
-13.93
-11.85
-12.41
-13.76
-14.12
-12.01
-6.40
2.96
15.21
28.32
39.59
46.69
48.56
45.76
40.14
33.92
28.54
24.22
20.07
14.87
7.84
-0.99
-10.88
-20.91
-30.39
-39.07
-46.99
-54.32
-61.14
-67.49
-73.38
-78.74
-83.30
-86.54
-87.96
-87.52
-86.01
-84.95
-85.97
-89.78
-95.62
-101.28
-103.90
-101.12
-91.93
-76.89
-57.72
-36.74
-16.10
2.67
19.01
33.49
47.50
62.52
79.12
96.34
111.95
123.51
129.74
130.98
128.60
123.80
116.81
107.25
95.26
82.44
71.72
66.16
67.42
75.04
86.97
100.95
115.78
131.22
147.72
165.50
183.96
201.92
218.37
233.16
247.02
261.08
275.95
291.69
307.75
322.72
334.21
339.02
334.27
319.06
295.85
269.70
247.49
234.91
233.42
238.80
242.86
237.18
217.15
183.52
139.36
89.74
39.48
-8.85
-55.37
-101.59
-148.80
-197.22
-246.48
-299.73
-357.11
-413.86
-461.91
-494.16
-508.22
-507.62
-500.38
-496.14
-509.16
-546.56
-605.75
-677.05
-749.30
-813.34
-862.44
-891.59
-898.34
-891.49
-878.40
-861.45
-838.65
-807.81
-769.13
-724.95
-677.72
-579.65
-417.21
-213.76
-13.21
151.93
271.93
351.18
398.23
422.63
434.40
431.94
416.04
392.79
371.39
358.95
358.42
365.29
376.28
389.14
396.63
396.13
390.86
387.50
391.22
402.92
419.68
437.13
450.15
450.37
433.61
401.47
359.76
314.92
271.40
231.42
196.23
166.26
139.79
116.28
96.70
82.50
73.94
69.37
65.84
60.63
51.82
38.36
21.27
3.20
-12.79
-24.68
-32.18
-36.49
-39.25
-41.73
-44.32
-46.53
-47.49
-46.69
-44.34
-41.33
-38.83
-37.57
-37.58
-38.17
-38.32
-37.23
-34.59
-30.55
-25.46
-19.71
-13.87
-8.95
-6.50
-8.24
-15.36
-27.74
-43.78
-60.82
-76.04
-87.16
-92.65
-91.57
-83.35
-67.98
-46.35
-20.75
5.41
28.37
45.26
54.96
58.18
56.86
53.12
48.52
43.82
39.19
34.65
30.26
26.15
22.37
18.85
15.39
11.87
8.37
5.06
2.17
-0.26
-2.32
-4.19
-5.91
-7.37
-8.29
-8.37
-7.40
-5.33
-2.24
1.76
6.42
11.37
16.02
19.76
22.07
22.82
22.29
21.12
20.02
19.51
19.77
20.71
22.05
23.53
24.89
25.97
26.57
26.46
25.30
22.76
18.63
13.01
6.37
-0.60
-7.18
-12.94
-17.88
-22.42
-27.08
-32.28
-38.07
-44.19
-50.24
-55.79
-60.37
-63.29
-63.58
-60.00
-51.52
-37.84
-19.85
0.39
20.20
37.01
49.23
56.57
59.78
60.05
58.34
55.02
50.04
43.36
35.46
27.42
20.76
16.79
16.21
18.85
23.72
29.31
34.00
36.36
35.48
31.27
24.73
17.67
12.20
9.61
9.22
7.99
0.94
-17.60
-52.43
-105.83
-176.25
-257.81
-340.86
-413.77
-465.79
-490.05
-485.54
-456.91
-412.48
-360.95
-308.57
-258.05
-209.17
-160.44
-110.46
-58.59
-4.90
49.82
103.89
154.45
197.70
229.92
248.83
254.42
249.00
236.36
220.38
204.01
188.94
175.78
164.54
155.01
146.78
139.36
132.13
124.56
116.48
108.16
100.16
93.14
87.49
83.05
79.23
75.24
70.48
64.78
58.46
52.12
46.41
41.69
37.97
35.02
32.51
30.11
27.61
24.91
22.02
19.02
16.04
13.24
10.68
8.39
6.29
4.29
2.32
0.37
-1.44
-2.94
-3.95
-4.38
-4.25
-3.71
-3.04
-2.50
-2.27
-2.38
-2.73
-3.12
-3.38
-3.43
-3.32
-3.22
-3.27
-3.53
-3.94
-4.32
-4.45
-4.23
-3.71
-3.06
-2.49
-2.13
-1.95
-1.83
-1.62
-1.24
-0.69
-0.06
0.57
1.22
1.93
2.76
3.70
4.65
5.47
6.09
6.47
6.67
6.77
6.80
6.76
6.60
6.28
5.78
5.14
4.48
4.02
4.08
5.06
7.35
11.18
16.52
22.98
29.90
36.44
41.85
45.58
47.38
47.31
45.61
42.64
38.77
34.33
29.59
24.74
19.94
15.39
11.40
8.31
6.45
5.97
6.75
8.41
10.43
12.36
13.91
15.02
15.69
15.92
15.59
14.51
12.55
9.65
5.93
1.66
-2.73
-6.61
-9.24
-9.84
-7.91
-3.66
1.62
5.63
5.68
-0.41
-13.21
-31.27
-51.36
-69.48
-82.10
-87.16
-84.47
-75.45
-62.47
-48.12
-34.61
-23.44
-15.29
-10.00
-6.90
-5.07
-3.75
-2.54
-1.36
-0.23
0.92
2.19
3.62
5.02
5.92
5.76
4.16
1.17
-2.80
-7.12
-11.32
-15.26
-19.18
-23.46
-28.41
-34.04
-40.01
-45.68
-50.31
-53.32
-54.35
-53.45
-50.86
-46.97
-42.03
-36.13
-29.27
-21.50
-13.13
-4.80
2.72
8.70
12.80
15.13
16.09
16.14
15.47
13.96
11.37
7.56
2.76
-2.46
-7.37
-11.31
-13.93
-15.17
-15.18
-14.19
-12.41
-10.10
-7.58
-5.21
-3.29
-1.96
-1.14
-0.58
-0.03
0.74
1.85
3.36
5.41
8.08
11.42
15.27
19.23
22.78
25.39
26.71
26.64
25.26
22.70
19.05
14.32
8.65
2.33
-4.13
-10.21
-15.60
-20.43
-25.21
-30.54
-36.74
-43.54
-50.08
-55.20
-57.92
-57.84
-55.24
-50.89
-45.63
-40.06
-34.35
-28.36
-21.87
-14.90
-7.77
-0.99
4.99
10.00
14.21
18.05
21.87
25.82
29.69
33.11
35.77
37.53
38.53
39.02
39.18
39.07
38.58
37.65
36.31
34.76
33.24
31.91
30.76
29.60
28.15
26.14
23.37
19.74
15.18
9.70
3.38
-3.58
-10.89
-18.19
-25.18
-31.72
-37.79
-43.50
-48.89
-53.78
-57.74
-60.17
-60.52
-58.61
-54.75
-49.69
-44.27
-39.05
-34.08
-28.95
-23.13
-16.42
-9.15
-2.04
4.20
9.20
13.12
16.38
19.31
21.91
23.96
25.34
26.27
27.30
29.02
31.61
34.72
37.62
39.65
40.52
40.45
39.89
39.21
38.49
37.61
36.43
34.93
33.18
31.21
28.85
25.74
21.52
16.04
9.49
2.35
-4.74
-11.25
-16.94
-21.85
-26.28
-30.59
-35.07
-39.78
-44.49
-48.71
-51.82
-53.21
-52.50
-49.64
-44.95
-39.07
-32.74
-26.62
-21.05
-16.08
-11.49
-7.02
-2.52
2.02
6.53
10.96
15.36
19.77
24.15
28.24
31.73
34.32
35.98
36.95
37.59
38.08
38.18
37.33
34.87
30.46
24.37
17.35
10.27
3.75
-2.12
-7.61
-13.01
-18.36
-23.26
-27.21
-29.83
-31.15
-31.58
-31.66
-31.81
-32.11
-32.39
-32.42
-32.10
-31.52
-30.98
-30.81
-31.25
-32.34
-33.89
-35.52
-36.77
-37.29
-36.91
-35.65
-33.64
-31.00
-27.82
-24.16
-20.18
-16.11
-12.23
-8.77
-5.76
-3.08
-0.55
1.80
3.73
4.80
4.57
2.83
-0.26
-4.22
-8.36
-11.97
-14.58
-16.04
-16.54
-16.53
-16.53
-16.91
-17.83
-19.15
-20.54
-21.60
-22.04
-21.68
-20.52
-18.70
-16.41
-13.92
-11.49
-9.35
-7.66
-6.44
-5.60
-4.96
-4.30
-3.41
-2.16
-0.51
1.44
3.54
5.58
7.38
8.89
10.17
11.32
12.45
13.62
14.80
15.91
16.87
17.64
18.20
18.54
18.61
18.40
17.94
17.32
16.71
16.27
16.10
16.17
16.36
16.48
16.35
15.91
15.13
14.10
12.95
11.80
10.74
9.81
8.99
8.22
7.40
6.47
5.40
4.24
3.06
1.98
1.03
0.21
-0.55
-1.32
-2.14
-3.02
-3.93
-4.85
-5.74
-6.55
-7.12
-7.32
-6.98
-6.08
-4.76
-3.27
-1.87
-0.70
0.28
1.28
2.60
4.45
6.91
9.86
13.02
16.03
18.55
20.36
21.44
21.92
21.98
21.79
21.36
20.66
19.61
18.30
16.91
15.70
14.85
14.35
14.02
13.59
12.87
11.80
10.49
9.09
7.69
6.29
4.81
3.19
1.44
-0.33
-1.94
-3.28
-4.31
-5.14
-6.00
-7.07
-8.41
-9.90
-11.21
-11.95
-11.79
-10.57
-8.41
-5.59
-2.44
0.70
3.62
6.22
8.50
10.53
12.43
14.28
16.13
17.90
19.42
20.52
21.04
20.97
20.47
19.77
19.11
18.61
18.29
18.03
17.70
17.22
16.59
15.85
15.07
14.28
13.50
12.72
12.01
11.41
10.96
10.64
10.34
9.90
9.17
8.14
6.89
5.59
4.38
3.35
2.48
1.66
0.79
-0.21
-1.32
-2.52
-3.77
-5.05
-6.31
-7.45
-8.29
-8.62
-8.24
-7.09
-5.29
-3.07
-0.75
1.43
3.34
5.00
6.47
7.78
8.92
9.79
10.30
10.42
10.18
9.71
9.14
8.57
8.08
7.65
7.28
6.98
6.74
6.57
6.48
6.47
6.51
6.59
6.63
6.56
6.27
5.75
5.07
4.41
4.03
4.14
4.78
5.80
6.94
7.86
8.35
8.34
7.93
7.40
7.11
7.41
8.51
10.41
12.79
15.16
16.95
17.72
17.26
15.60
13.03
10.04
7.35
5.78
6.05
8.54
13.08
18.96
25.19
30.86
35.34
38.30
39.48
38.56
35.19
29.31
21.35
12.17
2.69
-6.50
-15.37
-24.18
-33.08
-41.72
-49.36
-55.13
-58.58
-59.85
-59.51
-58.19
-56.15
-53.27
-49.22
-43.81
-37.21
-29.95
-22.76
-16.30
-11.01
-7.03
-4.26
-2.45
-1.30
-0.55
0.05
0.81
2.04
4.02
6.86
10.35
13.95
16.85
18.30
17.85
15.56
12.00
8.01
4.41
1.70
-0.02
-0.94
-1.34
-1.43
-1.32
-1.09
-0.80
-0.59
-0.55
-0.63
-0.65
-0.35
0.40
1.55
2.79
3.70
3.96
3.45
2.31
0.81
-0.77
-2.24
-3.49
-4.45
-5.11
-5.41
-5.34
-4.88
-4.02
-2.72
-0.99
1.12
3.45
5.73
7.70
9.14
9.99
10.34
10.32
10.02
9.48
8.71
7.70
6.56
5.43
4.45
3.74
3.34
3.19
3.16
3.12
2.98
2.69
2.31
1.96
1.79
1.88
2.24
2.81
3.50
4.22
4.89
5.42
5.71
5.69
5.35
4.79
4.22
3.85
3.79
4.03
4.42
4.70
4.67
4.22
3.38
2.29
1.16
0.17
-0.55
-0.95
-1.09
-1.06
-0.97
-0.89
-0.86
-0.87
-0.89
-0.91
-0.95
-1.09
-1.37
-1.81
-2.34
-2.91
-3.45
-3.92
-4.30
-4.58
-4.76
-4.77
-4.59
-4.24
-3.79
-3.33
-2.97
-2.71
-2.53
-2.36
-2.11
-1.74
-1.21
-0.57
0.10
0.70
1.13
1.37
1.42
1.36
1.28
1.25
1.28
1.37
1.43
1.39
1.15
0.66
-0.07
-0.99
-2.02
-3.11
-4.23
-5.37
-6.47
-7.43
-8.12
-8.48
-8.54
-8.43
-8.28
-8.10
-7.81
-7.24
-6.26
-4.84
-3.10
-1.25
0.54
2.14
3.51
4.66
5.55
6.14
6.40
6.36
6.14
5.86
5.64
5.48
5.28
4.91
4.29
3.47
2.59
1.85
1.36
1.14
1.08
1.07
1.04
1.00
1.00
1.04
1.05
0.94
0.63
0.11
-0.48
-1.02
-1.37
-1.54
-1.61
-1.68
-1.82
-2.03
-2.24
-2.37
-2.43
-2.47
-2.55
-2.74
-3.01
-3.33
-3.65
-3.96
-4.27
-4.57
-4.82
-4.94
-4.86
-4.54
-4.08
-3.60
-3.24
-3.05
-3.03
-3.07
-3.12
-3.15
-3.20
-3.36
-3.66
-4.08
-4.55
-4.97
-5.29
-5.49
-5.58
-5.59
-5.55
-5.46
-5.37
-5.28
-5.22
-5.12
-4.92
-4.50
-3.81
-2.83
-1.68
-0.47
0.65
1.54
2.17
2.53
2.69
2.72
2.72
2.77
2.90
3.09
3.28
3.42
3.47
3.43
3.34
3.25
3.18
3.14
3.10
3.02
2.85
2.59
2.26
1.92
1.67
1.60
1.72
1.94
2.15
2.22
2.14
1.94
1.75
1.64
1.63
1.67
1.70
1.65
1.52
1.34
1.18
1.04
0.87
0.62
0.28
-0.15
-0.60
-1.02
-1.39
-1.75
-2.18
-2.68
-3.23
-3.70
-3.96
-3.92
-3.59
-3.05
-2.47
-1.96
-1.57
-1.30
-1.09
-0.89
-0.72
-0.63
-0.64
-0.74
-0.86
-0.87
-0.72
-0.44
-0.14
0.07
0.13
0.07
0.00
0.03
0.18
0.36
0.44
0.34
0.07
-0.26
-0.50
-0.56
-0.43
-0.20
0.01
0.14
0.16
0.11
0.05
0.01
-0.04
-0.16
-0.41
-0.81
-1.31
-1.78
-2.12
-2.28
-2.32
-2.37
-2.56
-2.95
-3.44
-3.87
-4.07
-3.99
-3.66
-3.24
-2.82
-2.44
-2.08
-1.67
-1.21
-0.73
-0.34
-0.08
0.03
0.05
0.10
0.26
0.54
0.90
1.27
1.54
1.68
1.71
1.67
1.63
1.62
1.61
1.57
1.46
1.30
1.17
1.13
1.20
1.35
1.46
1.42
1.16
0.71
0.18
-0.28
-0.56
-0.60
-0.47
-0.28
-0.19
-0.26
-0.51
-0.85
-1.19
-1.44
-1.59
-1.66
-1.71
-1.76
-1.83
-1.88
-1.93
-2.00
-2.15
-2.40
-2.72
-3.01
-3.18
-3.14
-2.90
-2.54
-2.18
-1.93
-1.84
-1.84
-1.81
-1.62
-1.22
-0.67
-0.13
0.26
0.48
0.57
0.66
0.83
1.05
1.24
1.29
1.18
1.01
0.92
0.96
1.09
1.20
1.16
0.95
0.66
0.43
0.37
0.51
0.79
1.09
1.28
1.30
1.14
0.85
0.50
0.14
-0.20
-0.55
-0.93
-1.36
-1.82
-2.26
-2.62
-2.91
-3.12
-3.27
-3.34
-3.28
-3.07
-2.73
-2.39
-2.15
-2.12
-2.25
-2.42
-2.44
-2.19
-1.64
-0.90
-0.14
0.53
1.09
1.61
2.14
2.71
3.23
3.56
3.61
3.34
2.85
2.30
1.85
1.62
1.67
1.95
2.36
2.75
2.99
2.94
2.51
1.69
0.53
-0.88
-2.37
-3.80
-5.00
-5.83
-6.21
-6.16
-5.80
-5.32
-4.92
-4.77
-4.90
-5.26
-5.77
-6.33
-6.91
-7.49
-8.09
-8.66
-9.15
-9.47
-9.54
-9.29
-8.70
-7.75
-6.46
-4.90
-3.19
-1.46
0.20
1.74
3.16
4.49
5.74
6.86
7.77
8.39
8.66
8.59
8.24
7.73
7.14
6.55
5.98
5.39
4.74
4.02
3.25
2.49
1.83
1.31
0.91
0.59
0.31
0.08
-0.03
0.04
0.33
0.77
1.23
1.52
1.54
1.24
0.72
0.10
-0.48
-0.94
-1.28
-1.51
-1.66
-1.75
-1.79
-1.79
-1.81
-1.89
-2.00
-2.11
-2.10
-1.90
-1.50
-0.97
-0.42
0.06
0.47
0.86
1.29
1.74
2.14
2.40
2.43
2.26
1.95
1.59
1.29
1.08
1.00
1.05
1.21
1.47
1.77
2.04
2.23
2.35
2.40
2.39
2.29
2.07
1.73
1.28
0.85
0.54
0.41
0.43
0.46
0.35
0.01
-0.54
-1.21
-1.86
-2.41
-2.84
-3.19
-3.50
-3.79
-4.01
-4.07
-3.90
-3.46
-2.78
-1.96
-1.18
-0.55
-0.14
0.06
0.17
0.30
0.53
0.83
1.11
1.26
1.22
1.05
0.86
0.76
0.81
0.97
1.19
1.38
1.50
1.51
1.45
1.34
1.24
1.17
1.15
1.15
1.13
1.01
0.74
0.32
-0.19
-0.71
-1.12
-1.34
-1.33
-1.14
-0.86
-0.63
-0.58
-0.81
-1.30
-1.92
-2.49
-2.80
-2.77
-2.43
-1.92
-1.42
-1.04
-0.75
-0.45
-0.05
0.48
1.05
1.47
1.61
1.44
1.05
0.63
0.35
0.28
0.42
0.68
0.99
1.26
1.48
1.65
1.78
1.86
1.91
1.91
1.85
1.71
1.45
1.08
0.64
0.23
-0.05
-0.13
-0.01
0.23
0.43
0.44
0.15
-0.42
-1.18
-1.99
-2.69
-3.20
-3.48
-3.55
-3.47
-3.26
-2.96
-2.61
-2.23
-1.84
-1.46
-1.12
-0.83
-0.59
-0.39
-0.21
-0.01
0.24
0.54
0.86
1.17
1.40
1.53
1.56
1.53
1.45
1.35
1.21
1.02
0.81
0.63
0.53
0.51
0.56
0.63
0.65
0.61
0.50
0.36
0.23
0.10
-0.03
-0.17
-0.36
-0.60
-0.89
-1.21
-1.55
-1.88
-2.19
-2.45
-2.64
-2.75
-2.77
-2.67
-2.43
-2.04
-1.47
-0.75
0.04
0.81
1.41
1.75
1.81
1.63
1.32
1.02
0.81
0.75
0.83
1.00
1.19
1.35
1.45
1.49
1.51
1.54
1.55
1.53
1.43
1.23
0.97
0.67
0.40
0.18
0.03
-0.04
-0.05
-0.04
-0.07
-0.16
-0.33
-0.53
-0.70
-0.83
-0.95
-1.17
-1.56
-2.11
-2.72
-3.24
-3.53
-3.59
-3.45
-3.20
-2.92
-2.64
-2.37
-2.10
-1.83
-1.53
-1.15
-0.64
-0.00
0.68
1.29
1.67
1.76
1.61
1.34
1.09
0.93
0.91
1.00
1.18
1.41
1.65
1.80
1.73
1.38
0.75
0.01
-0.62
-0.92
-0.79
-0.28
0.40
1.03
1.42
1.49
1.28
0.89
0.46
0.06
-0.30
-0.61
-0.89
-1.13
-1.29
-1.39
-1.47
-1.57
-1.75
-1.99
-2.22
-2.33
-2.24
-1.93
-1.49
-1.04
-0.66
-0.40
-0.22
-0.06
0.13
0.40
0.74
1.11
1.45
1.74
1.93
2.04
2.13
2.22
2.32
2.38
2.36
2.24
2.07
1.90
1.83
1.88
1.99
2.06
2.00
1.80
1.51
1.21
0.99
0.85
0.73
0.57
0.32
0.01
-0.31
-0.55
-0.70
-0.78
-0.88
-1.04
-1.29
-1.58
-1.89
-2.22
-2.60
-3.04
-3.51
-3.95
-4.23
-4.30
-4.20
-4.06
-3.99
-4.05
-4.15
-4.17
-4.01
-3.69
-3.29
-2.91
-2.62
-2.41
-2.25
-2.15
-2.17
-2.38
-2.80
-3.32
-3.77
-4.01
-4.01
-3.83
-3.64
-3.51
-3.44
-3.33
-3.05
-2.55
-1.88
-1.13
-0.40
0.27
0.91
1.56
2.27
3.01
3.76
4.46
5.08
5.58
5.90
6.00
5.86
5.51
5.05
4.58
4.15
3.71
3.18
2.50
1.73
1.01
0.51
0.30
0.31
0.41
0.41
0.27
0.02
-0.21
-0.32
-0.28
-0.13
0.06
0.26
0.47
0.69
0.94
1.23
1.53
1.81
2.02
2.14
2.15
2.05
1.91
1.81
1.83
1.99
2.25
2.48
2.58
2.54
2.41
2.30
2.29
2.38
2.53
2.63
2.61
2.43
2.14
1.79
1.50
1.37
1.47
1.80
2.27
2.71
2.96
2.93
2.70
2.48
2.50
2.85
3.45
4.04
4.37
4.30
4.03
3.93
4.50
6.09
8.66
11.81
14.85
17.11
18.20
18.30
18.06
18.43
20.24
23.85
28.87
34.23
38.51
40.62
40.25
38.13
35.74
34.65
35.76
39.03
43.63
48.54
52.98
56.48
58.48
58.06
54.33
47.31
38.46
30.26
24.68
21.71
19.04
13.47
3.40
-9.51
-20.58
-24.53
-18.53
-3.94
14.29
30.24
39.88
42.53
40.33
36.28
32.46
29.34
26.28
22.54
18.00
13.31
9.46
7.16
6.36
6.25
5.68
3.59
-0.45
-6.13
-12.63
-19.09
-25.04
-30.50
-35.76
-41.01
-46.04
-50.30
-53.11
-54.07
-53.24
-51.15
-48.57
-46.28
-44.75
-44.06
-43.83
-43.38
-42.04
-39.48
-35.92
-32.18
-29.29
-28.01
-28.46
-30.08
-31.86
-32.84
-32.46
-30.75
-28.14
-25.30
-22.87
-21.33
-20.85
-21.24
-21.92
-22.10
-21.01
-18.24
-13.88
-8.55
-3.26
0.85
2.81
2.07
-1.15
-5.88
-10.76
-14.60
-16.91
-18.05
-18.86
-19.95
-21.29
-22.17
-21.83
-20.09
-17.62
-15.57
-14.83
-15.37
-16.26
-16.26
-14.63
-11.66
-8.48
-6.43
-6.29
-7.96
-10.42
-12.37
-12.70
-10.96
-7.45
-3.07
1.13
4.19
5.59
5.28
3.57
0.97
-2.01
-4.96
-7.57
-9.62
-10.94
-11.43
-11.08
-10.08
-8.77
-7.63
-7.09
-7.38
-8.44
-10.00
-11.64
-13.00
-13.86
-14.19
-14.17
-14.05
-14.10
-14.47
-15.14
-15.92
-16.50
-16.60
-16.13
-15.31
-14.60
-14.46
-15.18
-16.61
-18.22
-19.27
-19.17
-17.80
-15.53
-13.16
-11.43
-10.73
-10.84
-11.07
-10.61
-9.01
-6.44
-3.72
-1.98
-2.15
-4.60
-8.86
-13.64
-17.02
-16.91
-11.57
-0.21
16.44
36.08
55.21
70.22
78.54
79.55
74.74
67.01
59.43
53.80
49.96
45.79
38.36
25.37
6.33
-17.07
-41.62
-63.77
-80.84
-91.59
-96.15
-95.35
-90.12
-81.16
-69.23
-55.51
-41.93
-30.86
-24.28
-22.91
-25.66
-29.83
-32.06
-29.54
-20.98
-7.01
10.22
28.03
44.09
57.06
66.53
72.72
75.99
76.66
74.96
71.17
65.66
58.97
51.65
44.31
37.50
31.61
26.82
23.08
20.21
17.95
16.09
14.48
13.05
11.77
10.57
9.37
8.06
6.59
4.92
3.06
1.08
-0.89
-2.69
-4.11
-5.00
-5.32
-5.20
-4.91
-4.76
-4.99
-5.65
-6.64
-7.82
-9.05
-10.25
-11.41
-12.49
-13.41
-14.04
-14.27
-14.04
-13.41
-12.49
-11.42
-10.30
-9.22
-8.17
-7.17
-6.23
-5.35
-4.55
-3.84
-3.22
-2.68
-2.21
-1.81
-1.48
-1.22
-1.05
-0.95
-0.87
-0.74
-0.47
-0.05
0.47
0.98
1.38
1.62
1.72
1.74
1.72
1.65
1.51
1.27
0.94
0.58
0.25
0.01
-0.09
-0.07
0.05
0.21
0.30
0.23
-0.05
-0.51
-1.04
-1.51
-1.83
-1.97
-1.96
-1.83
-1.57
-1.14
-0.54
0.12
0.72
1.07
1.14
0.97
0.74
0.62
0.69
0.92
1.22
1.49
1.71
1.95
2.26
2.62
2.96
3.15
3.11
2.84
2.46
2.09
1.85
1.77
1.84
1.98
2.11
2.18
2.11
1.86
1.45
0.89
0.29
-0.24
-0.63
-0.86
-1.01
-1.16
-1.38
-1.65
-1.86
-1.87
-1.60
-1.06
-0.40
0.22
0.68
0.96
1.16
1.44
1.87
2.43
2.98
3.32
3.37
3.19
2.94
2.81
2.91
3.19
3.51
3.75
3.86
3.91
3.95
4.00
3.96
3.73
3.28
2.70
2.14
1.73
1.52
1.40
1.27
1.06
0.81
0.61
0.51
0.50
0.48
0.37
0.09
-0.31
-0.79
-1.26
-1.69
-2.09
-2.46
-2.83
-3.15
-3.37
-3.44
-3.32
-3.06
-2.69
-2.28
-1.86
-1.43
-0.94
-0.35
0.36
1.12
1.79
2.23
2.32
2.07
1.60
1.14
0.90
1.01
1.45
2.08
2.72
3.18
3.37
3.28
2.98
2.61
2.29
2.14
2.20
2.46
2.82
3.10
3.17
2.94
2.44
1.77
1.12
0.61
0.27
0.01
-0.30
-0.77
-1.41
-2.10
-2.64
-2.86
-2.71
-2.29
-1.79
-1.39
-1.15
-1.00
-0.77
-0.34
0.34
1.16
1.96
2.55
2.83
2.82
2.65
2.47
2.42
2.54
2.80
3.09
3.34
3.51
3.63
3.76
3.93
4.13
4.33
4.48
4.59
4.67
4.72
4.73
4.66
4.50
4.28
4.01
3.73
3.38
2.89
2.25
1.50
0.78
0.26
0.01
-0.03
-0.05
-0.27
-0.84
-1.71
-2.67
-3.41
-3.69
-3.38
-2.58
-1.51
-0.44
0.39
0.89
1.08
1.10
1.11
1.22
1.45
1.78
2.11
2.39
2.58
2.70
2.78
2.86
2.97
3.11
3.32
3.62
4.02
4.49
4.94
5.27
5.41
5.28
4.91
4.36
3.73
3.13
2.68
2.40
2.24
2.09
1.81
1.35
0.74
0.11
-0.42
-0.81
-1.12
-1.48
-2.00
-2.64
-3.29
-3.77
-3.95
-3.82
-3.44
-2.91
-2.32
-1.72
-1.11
-0.49
0.15
0.76
1.32
1.76
2.06
2.19
2.19
2.10
2.00
1.93
1.95
2.05
2.23
2.43
2.60
2.70
2.73
2.70
2.66
2.61
2.55
2.43
2.19
1.85
1.43
1.04
0.72
0.53
0.44
0.41
0.41
0.45
0.58
0.81
1.07
1.25
1.19
0.77
-0.02
-1.04
-2.08
-2.91
-3.36
-3.35
-2.97
-2.34
-1.63
-0.91
-0.23
0.46
1.15
1.80
2.29
2.49
2.35
1.92
1.39
0.94
0.71
0.72
0.89
1.12
1.31
1.46
1.57
1.66
1.76
1.87
1.98
2.08
2.15
2.14
2.01
1.75
1.38
0.95
0.55
0.22
0.03
-0.01
0.12
0.36
0.62
0.80
0.77
0.45
-0.13
-0.88
-1.66
-2.33
-2.79
-3.00
-2.96
-2.72
-2.33
-1.85
-1.37
-0.95
-0.64
-0.47
-0.38
-0.29
-0.16
0.06
0.33
0.58
0.77
0.88
0.96
1.09
1.31
1.62
1.95
2.23
2.41
2.50
2.52
2.55
2.60
2.65
2.67
2.60
2.41
2.09
1.66
1.18
0.70
0.31
0.08
0.01
0.03
0.02
-0.15
-0.55
-1.15
-1.84
-2.49
-2.98
-3.24
-3.26
-3.07
-2.70
-2.17
-1.55
-0.91
-0.35
0.04
0.23
0.23
0.14
0.06
0.06
0.20
0.45
0.75
1.05
1.32
1.58
1.87
2.22
2.58
2.87
3.01
2.98
2.83
2.69
2.63
2.69
2.83
2.95
3.00
2.97
2.88
2.78
2.70
2.61
2.48
2.29
2.00
1.64
1.20
0.68
0.08
-0.60
-1.37
-2.19
-2.96
-3.60
-3.98
-4.07
-3.91
-3.62
-3.34
-3.11
-2.94
-2.72
-2.35
-1.79
-1.09
-0.35
0.35
0.95
1.48
1.91
2.27
2.53
2.70
2.85
3.04
3.30
3.60
3.83
3.89
3.75
3.45
3.12
2.86
2.75
2.78
2.87
2.92
2.85
2.60
2.13
1.47
0.69
-0.12
-0.83
-1.35
-1.65
-1.76
-1.78
-1.81
-1.98
-2.34
-2.88
-3.51
-4.07
-4.41
-4.44
-4.19
-3.76
-3.32
-2.93
-2.61
-2.29
-1.91
-1.47
-0.99
-0.49
0.01
0.52
1.05
1.55
1.97
2.27
2.47
2.65
2.93
3.35
3.86
4.33
4.62
4.68
4.56
4.35
4.12
3.90
3.67
3.40
3.11
2.81
2.56
2.34
2.12
1.83
1.43
0.97
0.49
0.03
-0.40
-0.88
-1.45
-2.09
-2.74
-3.29
-3.70
-3.99
-4.21
-4.39
-4.52
-4.53
-4.39
-4.12
-3.80
-3.51
-3.27
-2.99
-2.56
-1.89
-0.98
0.05
0.99
1.69
2.05
2.13
2.09
2.12
2.35
2.76
3.27
3.73
4.06
4.28
4.48
4.76
5.13
5.47
5.67
5.60
5.28
4.77
4.20
3.63
3.10
2.59
2.11
1.65
1.24
0.87
0.51
0.15
-0.23
-0.61
-0.96
-1.26
-1.55
-1.86
-2.23
-2.68
-3.18
-3.71
-4.21
-4.65
-4.98
-5.17
-5.15
-4.89
-4.36
-3.61
-2.75
-1.91
-1.22
-0.75
-0.48
-0.38
-0.32
-0.21
0.03
0.42
0.93
1.48
1.98
2.39
2.67
2.83
2.86
2.81
2.67
2.51
2.38
2.33
2.40
2.55
2.71
2.82
2.80
2.63
2.30
1.84
1.27
0.60
-0.13
-0.87
-1.55
-2.13
-2.58
-2.89
-3.10
-3.23
-3.34
-3.46
-3.58
-3.64
-3.56
-3.29
-2.82
-2.23
-1.63
-1.14
-0.78
-0.48
-0.15
0.30
0.84
1.36
1.76
1.99
2.10
2.19
2.33
2.53
2.70
2.76
2.67
2.46
2.26
2.18
2.24
2.36
2.39
2.23
1.87
1.38
0.92
0.63
0.54
0.61
0.72
0.71
0.50
0.04
-0.62
-1.41
-2.22
-2.96
-3.58
-4.06
-4.40
-4.63
-4.74
-4.71
-4.54
-4.24
-3.89
-3.54
-3.23
-2.95
-2.63
-2.19
-1.62
-0.95
-0.27
0.35
0.86
1.27
1.61
1.91
2.15
2.33
2.44
2.50
2.57
2.71
2.92
3.17
3.36
3.40
3.24
2.90
2.45
2.00
1.67
1.50
1.44
1.37
1.16
0.71
0.06
-0.68
-1.32
-1.71
-1.84
-1.82
-1.87
-2.16
-2.75
-3.52
-4.27
-4.80
-5.04
-5.02
-4.89
-4.75
-4.62
-4.41
-4.03
-3.45
-2.73
-1.97
-1.30
-0.78
-0.43
-0.23
-0.19
-0.27
-0.42
-0.52
-0.40
0.07
0.91
2.02
3.14
4.02
4.47
4.45
4.06
3.48
2.88
2.37
2.00
1.77
1.66
1.64
1.66
1.66
1.56
1.31
0.93
0.48
0.05
-0.30
-0.55
-0.74
-0.92
-1.13
-1.39
-1.67
-1.94
-2.18
-2.40
-2.60
-2.82
-3.07
-3.34
-3.58
-3.72
-3.73
-3.61
-3.42
-3.20
-2.97
-2.72
-2.41
-1.99
-1.50
-0.99
-0.50
-0.08
0.31
0.70
1.16
1.64
2.07
2.35
2.41
2.26
2.01
1.76
1.61
1.59
1.67
1.79
1.90
1.97
2.03
2.09
2.14
2.12
1.98
1.66
1.21
0.72
0.30
0.05
-0.04
-0.07
-0.18
-0.49
-1.03
-1.74
-2.50
-3.20
-3.75
-4.14
-4.35
-4.40
-4.26
-3.95
-3.50
-2.96
-2.37
-1.76
-1.12
-0.47
0.18
0.78
1.30
1.71
2.05
2.35
2.64
2.94
3.26
3.58
3.90
4.20
4.43
4.52
4.37
3.94
3.28
2.51
1.83
1.39
1.25
1.31
1.42
1.46
1.36
1.21
1.09
1.02
0.95
0.74
0.28
-0.43
-1.27
-2.03
-2.57
-2.83
-2.90
-2.93
-3.07
-3.38
-3.81
-4.29
-4.72
-5.03
-5.22
-5.28
-5.22
-5.02
-4.65
-4.08
-3.32
-2.41
-1.45
-0.58
0.11
0.54
0.76
0.87
1.01
1.30
1.77
2.35
2.87
3.18
3.22
3.06
2.85
2.75
2.80
2.92
2.96
2.83
2.51
2.11
1.75
1.50
1.37
1.26
1.09
0.82
0.47
0.11
-0.22
-0.50
-0.75
-0.99
-1.23
-1.43
-1.61
-1.78
-2.03
-2.41
-2.93
-3.52
-4.04
-4.34
-4.38
-4.19
-3.86
-3.51
-3.20
-2.92
-2.64
-2.27
-1.77
-1.14
-0.41
0.32
0.92
1.31
1.45
1.44
1.38
1.40
1.56
1.80
2.03
2.17
2.19
2.10
1.95
1.73
1.47
1.16
0.87
0.64
0.49
0.40
0.32
0.21
0.06
-0.09
-0.19
-0.23
-0.20
-0.17
-0.18
-0.29
-0.56
-1.01
-1.63
-2.35
-3.05
-3.58
-3.84
-3.82
-3.60
-3.30
-3.02
-2.78
-2.50
-2.08
-1.47
-0.71
0.09
0.79
1.29
1.60
1.75
1.82
1.86
1.87
1.85
1.80
1.75
1.76
1.80
1.85
1.86
1.84
1.83
1.93
2.15
2.46
2.75
2.89
2.82
2.54
2.11
1.63
1.17
0.79
0.52
0.35
0.23
0.10
-0.10
-0.40
-0.79
-1.24
-1.74
-2.32
-2.98
-3.69
-4.32
-4.72
-4.79
-4.55
-4.15
-3.77
-3.53
-3.42
-3.31
-3.07
-2.65
-2.05
-1.36
-0.66
-0.01
0.57
1.05
1.42
1.68
1.90
2.15
2.45
2.78
3.03
3.10
2.96
2.68
2.37
2.12
1.93
1.78
1.61
1.42
1.27
1.21
1.25
1.30
1.29
1.14
0.87
0.54
0.24
0.00
-0.21
-0.48
-0.88
-1.44
-2.11
-2.75
-3.24
-3.52
-3.63
-3.68
-3.81
-4.07
-4.41
-4.70
-4.79
-4.61
-4.14
-3.49
-2.75
-1.98
-1.22
-0.43
0.37
1.14
1.77
2.17
2.29
2.18
2.01
1.92
2.05
2.42
2.94
3.46
3.82
3.94
3.81
3.54
3.23
3.01
2.92
2.93
2.91
2.73
2.28
1.59
0.79
0.07
-0.37
-0.48
-0.35
-0.19
-0.20
-0.50
-1.04
-1.71
-2.37
-2.92
-3.35
-3.70
-3.97
-4.17
-4.28
-4.29
-4.20
-4.04
-3.80
-3.49
-3.10
-2.63
-2.10
-1.54
-0.97
-0.38
0.19
0.75
1.22
1.59
1.82
1.95
2.03
2.11
2.22
2.38
2.58
2.80
2.98
3.02
2.85
2.43
1.87
1.34
1.04
1.07
1.35
1.68
1.84
1.69
1.26
0.72
0.22
-0.16
-0.43
-0.67
-0.95
-1.27
-1.61
-1.93
-2.24
-2.56
-2.91
-3.26
-3.57
-3.79
-3.92
-3.95
-3.90
-3.76
-3.49
-3.08
-2.50
-1.80
-1.06
-0.36
0.24
0.75
1.22
1.68
2.12
2.54
2.89
3.18
3.43
3.65
3.81
3.86
3.74
3.45
3.04
2.60
2.24
1.99
1.84
1.78
1.83
2.00
2.32
2.68
2.93
2.89
2.45
1.66
0.70
-0.21
-0.87
-1.24
-1.38
-1.42
-1.51
-1.74
-2.17
-2.77
-3.49
-4.25
-4.94
-5.42
-5.60
-5.40
-4.88
-4.18
-3.48
-2.91
-2.51
-2.21
-1.88
-1.44
-0.90
-0.35
0.14
0.54
0.94
1.47
2.16
2.93
3.61
4.02
4.10
3.94
3.72
3.59
3.60
3.68
3.69
3.57
3.34
3.10
2.98
2.99
3.04
2.99
2.69
2.11
1.41
0.79
0.43
0.37
0.47
0.49
0.24
-0.30
-1.01
-1.69
-2.21
-2.59
-2.96
-3.44
-4.04
-4.64
-5.03
-5.09
-4.83
-4.38
-3.95
-3.63
-3.41
-3.13
-2.63
-1.84
-0.86
0.09
0.77
1.05
0.97
0.73
0.58
0.67
0.99
1.42
1.76
1.92
1.95
1.95
2.05
2.27
2.54
2.77
2.87
2.85
2.78
2.68
2.55
2.29
1.84
1.19
0.43
-0.26
-0.75
-0.99
-1.02
-0.94
-0.89
-0.96
-1.20
-1.61
-2.16
-2.76
-3.29
-3.61
-3.64
-3.41
-2.99
-2.53
-2.13
-1.79
-1.49
-1.18
-0.83
-0.45
-0.10
0.20
0.49
0.83
1.29
1.85
2.45
2.98
3.31
3.43
3.35
3.20
3.10
3.13
3.29
3.47
3.54
3.40
3.08
2.69
2.34
2.13
2.03
1.98
1.90
1.79
1.68
1.59
1.50
1.33
1.00
0.52
-0.06
-0.58
-0.99
-1.27
-1.51
-1.81
-2.23
-2.79
-3.42
-4.05
-4.56
-4.89
-4.95
-4.76
-4.37
-3.90
-3.47
-3.11
-2.78
-2.39
-1.85
-1.14
-0.34
0.41
1.04
1.48
1.79
2.06
2.34
2.64
2.92
3.12
3.19
3.16
3.07
2.98
2.92
2.85
2.72
2.48
2.18
1.90
1.73
1.69
1.72
1.72
1.58
1.29
0.90
0.48
0.10
-0.21
-0.45
-0.65
-0.83
-1.06
-1.41
-1.96
-2.74
-3.74
-4.79
-5.71
-6.31
-6.48
-6.24
-5.70
-5.04
-4.39
-3.84
-3.36
-2.85
-2.20
-1.40
-0.54
0.24
0.77
1.02
1.06
1.01
0.97
0.95
0.94
0.92
0.91
0.99
1.21
1.56
1.92
2.15
2.18
1.99
1.67
1.35
1.10
0.95
0.88
0.87
0.89
0.93
0.98
1.03
1.04
1.00
0.91
0.82
0.74
0.67
0.59
0.44
0.22
-0.07
-0.40
-0.75
-1.11
-1.51
-1.98
-2.47
-2.89
-3.11
-3.00
-2.57
-1.90
-1.15
-0.49
0.02
0.36
0.62
0.90
1.27
1.73
2.22
2.65
2.96
3.09
3.06
2.90
2.70
2.53
2.44
2.47
2.59
2.78
2.99
3.14
3.16
2.96
2.54
1.93
1.25
0.61
0.08
-0.35
-0.75
-1.16
-1.62
-2.06
-2.43
-2.70
-2.92
-3.18
-3.57
-4.10
-4.70
-5.21
-5.53
-5.60
-5.48
-5.25
-5.01
-4.79
-4.58
-4.33
-4.02
-3.65
-3.25
-2.84
-2.40
-1.87
-1.17
-0.32
0.60
1.44
2.03
2.28
2.19
1.86
1.42
1.05
0.87
0.97
1.36
1.97
2.69
3.37
3.88
4.18
4.29
4.26
4.15
3.94
3.61
3.13
2.48
1.70
0.84
-0.06
-0.94
-1.74
-2.35
-2.70
-2.75
-2.52
-2.16
-1.79
-1.55
-1.46
-1.44
-1.38
-1.13
-0.66
0.02
0.75
1.36
1.69
1.67
1.32
0.80
0.32
0.07
0.17
0.62
1.31
2.04
2.65
3.00
3.03
2.80
2.39
1.92
1.49
1.18
1.02
1.02
1.13
1.26
1.29
1.14
0.80
0.37
-0.03
-0.25
-0.27
-0.15
-0.01
-0.02
-0.25
-0.71
-1.34
-2.05
-2.72
-3.23
-3.48
-3.38
-2.95
-2.29
-1.59
-1.05
-0.79
-0.79
-0.89
-0.88
-0.64
-0.15
0.47
1.06
1.50
1.77
1.95
2.11
2.31
2.48
2.54
2.42
2.17
1.88
1.72
1.75
1.92
2.09
2.11
1.93
1.56
1.10
0.58
-0.02
-0.75
-1.59
-2.39
-2.98
-3.20
-3.08
-2.84
-2.77
-3.06
-3.69
-4.42
-4.89
-4.90
-4.41
-3.62
-2.81
-2.18
-1.78
-1.51
-1.23
-0.88
-0.52
-0.25
-0.14
-0.16
-0.14
0.07
0.55
1.22
1.88
2.35
2.54
2.49
2.32
2.18
2.15
2.26
2.48
2.74
2.99
3.12
3.08
2.83
2.44
1.99
1.60
1.28
0.95
0.49
-0.14
-0.88
-1.60
-2.17
-2.54
-2.79
-3.02
-3.32
-3.71
-4.10
-4.37
-4.46
-4.38
-4.20
-4.01
-3.82
-3.66
-3.44
-3.09
-2.51
-1.69
-0.73
0.16
0.80
1.05
0.88
0.39
-0.16
-0.51
-0.49
-0.16
0.29
0.72
1.03
1.15
1.10
1.00
1.04
1.35
1.96
2.83
3.97
5.21
6.18
6.44
5.87
4.82
4.13
4.91
8.19
14.65
23.91
34.48
44.25
51.29
54.51
53.95
50.56
44.30
36.31
28.64
23.16
20.45
19.84
20.01
19.84
18.71
16.73
14.65
13.25
13.01
13.82
15.12
15.97
15.13
11.19
3.38
-8.51
-23.85
-41.07
-58.01
-72.32
-82.29
-87.28
-87.84
-85.29
-81.09
-76.36
-71.75
-67.46
-63.38
-59.37
-55.42
-51.70
-48.41
-45.60
-42.86
-39.49
-34.74
-28.24
-20.30
-11.79
-3.68
3.50
9.92
16.22
22.99
30.29
37.49
43.55
47.61
49.35
49.12
47.68
45.82
43.99
42.17
39.96
36.89
32.64
27.38
21.77
16.94
14.27
15.04
20.06
29.41
42.30
57.20
72.17
85.26
94.81
99.76
99.57
94.38
84.87
72.20
57.71
42.37
26.43
9.46
-9.06
-28.86
-48.22
-64.24
-73.92
-75.51
-69.52
-58.60
-46.48
-36.42
-30.10
-27.23
-26.22
-25.16
-22.77
-18.78
-13.77
-8.70
-4.31
-0.85
1.90
4.30
6.48
8.13
8.68
7.63
4.97
1.26
-2.62
-5.83
-8.01
-9.33
-10.35
-11.67
-13.60
-15.98
-18.30
-19.93
-20.47
-19.94
-18.79
-17.71
-17.26
-17.62
-18.55
-19.50
-20.02
-19.93
-19.48
-19.12
-19.24
-19.98
-21.13
-22.26
-22.90
-22.72
-21.62
-19.75
-17.37
-14.83
-12.42
-10.40
-8.83
-7.49
-5.96
-3.78
-0.71
3.17
7.36
11.13
13.60
14.18
12.81
10.04
6.79
3.98
2.24
1.62
1.66
1.33
-0.20
-3.14
-6.98
-10.81
-13.75
-15.29
-15.40
-14.46
-13.61
-13.84
-15.54
-18.53
-22.51
-27.30
-32.73
-38.27
-42.93
-46.30
-47.85
-46.94
-43.16
-36.90
-29.38
-21.99
-15.78
-11.22
-9.63
-11.98
-18.39
-28.06
-39.74
-52.11
-63.73
-73.22
-72.32
-56.80
-29.25
2.35
30.34
50.89
63.51
69.45
70.37
68.31
63.48
56.06
47.01
37.96
30.36
24.84
21.91
21.29
22.41
23.65
23.74
22.37
20.13
17.88
16.18
15.27
15.05
15.38
15.56
15.13
14.18
13.19
12.61
12.55
12.81
13.07
13.09
12.52
11.25
9.50
7.72
6.28
5.39
5.03
5.04
5.27
5.47
5.46
5.16
4.59
3.85
3.10
2.50
2.22
2.34
2.82
3.49
4.10
4.44
4.47
4.32
4.22
4.40
4.98
5.93
7.09
8.23
9.10
9.56
9.55
9.14
8.42
7.52
6.50
5.42
4.35
3.40
2.71
2.41
2.53
2.95
3.47
3.84
3.92
3.66
3.10
2.35
1.47
0.53
-0.39
-1.22
-1.84
-2.18
-2.22
-2.03
-1.73
-1.47
-1.31
-1.25
-1.21
-1.08
-0.80
-0.41
-0.02
0.19
0.11
-0.25
-0.75
-1.19
-1.36
-1.22
-0.82
-0.33
0.07
0.30
0.40
0.45
0.54
0.64
0.63
0.36
-0.27
-1.25
-2.47
-3.76
-4.98
-6.07
-6.97
-7.70
-8.27
-8.79
-9.41
-10.33
-11.64
-13.22
-14.69
-15.53
-15.27
-13.72
-11.10
-7.97
-5.08
-3.07
-2.26
-2.57
-3.55
-4.52
-4.85
-4.12
-2.25
0.48
3.65
6.79
9.57
11.81
13.47
14.46
14.72
14.20
13.01
11.46
10.04
9.23
9.46
10.92
13.62
17.36
21.88
26.85
31.99
36.92
41.31
44.78
47.02
47.85
47.27
45.47
42.76
39.54
36.21
33.14
30.63
28.85
27.86
27.61
27.92
28.51
29.14
29.54
29.54
29.05
28.03
26.54
24.72
22.81
21.05
19.63
18.55
17.60
16.37
14.33
10.99
6.00
-0.72
-8.94
-18.11
-27.50
-36.38
-44.25
-50.87
-56.23
-60.39
-63.28
-64.73
-64.56
-62.80
-59.73
-55.87
-51.79
-47.89
-44.37
-41.17
-38.21
-35.41
-32.73
-30.19
-27.78
-25.44
-23.09
-20.67
-18.12
-15.45
-12.73
-10.08
-7.65
-5.57
-3.88
-2.52
-1.40
-0.40
0.48
1.20
1.69
1.92
1.94
1.88
1.85
1.95
2.16
2.42
2.66
2.81
2.90
2.96
3.02
3.07
3.06
2.96
2.74
2.48
2.28
2.19
2.17
2.08
1.80
1.29
0.67
0.12
-0.20
-0.30
-0.37
-0.64
-1.22
-2.05
-2.85
-3.32
-3.26
-2.67
-1.74
-0.72
0.18
0.88
1.39
1.75
1.97
2.00
1.80
1.38
0.82
0.30
-0.06
-0.17
-0.06
0.19
0.45
0.61
0.64
0.55
0.40
0.25
0.16
0.15
0.19
0.23
0.22
0.09
-0.19
-0.63
-1.17
-1.74
-2.28
-2.81
-3.37
-4.02
-4.75
-5.45
-5.99
-6.28
-6.32
-6.27
-6.35
-6.73
-7.45
-8.37
-9.26
-9.92
-10.22
-10.12
-9.67
-8.89
-7.82
-6.52
-5.06
-3.60
-2.29
-1.27
-0.61
-0.27
-0.13
-0.06
0.01
0.08
0.11
0.04
-0.16
-0.42
-0.61
-0.64
-0.47
-0.15
0.18
0.41
0.46
0.38
0.27
0.26
0.41
0.69
1.03
1.33
1.50
1.49
1.27
0.85
0.28
-0.37
-0.95
-1.32
-1.38
-1.12
-0.66
-0.22
-0.01
-0.17
-0.74
-1.60
-2.60
-3.57
-4.35
-4.85
-4.96
-4.64
-3.92
-2.88
-1.66
-0.40
0.81
1.92
2.90
3.71
4.33
4.72
4.91
4.95
4.89
4.76
4.57
4.32
4.09
3.96
4.03
4.32
4.77
5.24
5.64
5.91
6.08
6.23
6.40
6.61
6.84
7.08
7.29
7.40
7.36
7.14
6.80
6.47
6.33
6.48
6.90
7.42
7.80
7.87
7.56
6.95
6.19
5.40
4.63
3.82
2.90
1.84
0.70
-0.33
-1.07
-1.32
-1.02
-0.20
0.98
2.39
3.87
5.29
6.49
7.30
7.54
7.11
6.01
4.39
2.52
0.63
-1.06
-2.48
-3.68
-4.77
-5.90
-7.18
-8.60
-10.07
-11.45
-12.58
-13.36
-13.77
-13.90
-13.84
-13.68
-13.48
-13.24
-12.99
-12.71
-12.44
-12.13
-11.75
-11.27
-10.70
-10.12
-9.68
-9.46
-9.51
-9.72
-9.91
-9.87
-9.47
-8.69
-7.61
-6.40
-5.21
-4.11
-3.09
-2.05
-0.93
0.30
1.58
2.79
3.80
4.46
4.73
4.64
4.31
3.90
3.55
3.39
3.46
3.75
4.20
4.74
5.25
5.65
5.84
5.79
5.51
5.07
4.57
4.10
3.71
3.38
3.07
2.72
2.26
1.67
0.96
0.16
-0.68
-1.54
-2.41
-3.30
-4.18
-4.99
-5.62
-5.92
-5.83
-5.33
-4.49
-3.43
-2.25
-1.05
0.10
1.14
2.02
2.68
3.09
3.28
3.35
3.40
3.51
3.67
3.85
3.98
3.99
3.89
3.73
3.58
3.50
3.46
3.37
3.15
2.73
2.15
1.48
0.81
0.18
-0.39
-0.92
-1.42
-1.91
-2.44
-3.06
-3.80
-4.67
-5.63
-6.58
-7.43
-8.06
-8.43
-8.50
-8.29
-7.87
-7.35
-6.83
-6.41
-6.09
-5.77
-5.27
-4.45
-3.27
-1.86
-0.51
0.48
0.86
0.52
-0.47
-1.94
-3.65
-5.38
-6.97
-8.33
-9.46
-10.43
-11.31
-12.13
-12.89
-13.55
-14.07
-14.49
-14.86
-15.32
-15.96
-16.78
-17.77
-18.82
-19.83
-20.70
-21.42
-22.05
-22.68
-23.48
-24.60
-26.12
-28.04
-30.20
-32.31
-33.99
-34.78
-34.22
-31.96
-27.90
-22.24
-15.50
-8.43
-1.74
4.05
8.76
12.52
15.58
18.20
20.50
22.48
24.01
25.01
25.41
25.25
24.62
23.66
22.53
21.37
20.29
19.33
18.47
17.67
16.84
15.90
14.76
13.37
11.80
10.18
8.76
7.71
7.06
6.64
6.22
5.59
4.77
3.99
3.56
3.67
4.32
5.35
6.51
7.67
8.76
9.81
10.79
11.60
12.13
12.29
12.13
11.76
11.35
10.99
10.70
10.44
10.17
9.89
9.60
9.33
9.06
8.79
8.55
8.34
8.17
8.01
7.80
7.45
6.92
6.23
5.45
4.70
4.04
3.45
2.85
2.10
1.10
-0.18
-1.68
-3.28
-4.78
-5.96
-6.63
-6.68
-6.12
-5.06
-3.71
-2.25
-0.81
0.56
1.89
3.22
4.52
5.76
6.86
7.78
8.50
9.05
9.46
9.80
10.08
10.30
10.40
10.32
10.00
9.46
8.83
8.30
8.04
8.10
8.38
8.64
8.61
8.18
7.37
6.36
5.34
4.42
3.59
2.80
1.97
1.10
0.24
-0.57
-1.31
-2.01
-2.76
-3.57
-4.42
-5.16
-5.61
-5.65
-5.28
-4.59
-3.76
-2.85
-1.82
-0.52
1.21
3.34
5.67
7.87
9.68
10.98
11.84
12.41
12.80
13.01
13.03
12.88
12.68
12.60
12.77
13.15
13.58
13.81
13.69
13.19
12.45
11.65
10.92
10.31
9.76
9.15
8.38
7.43
6.34
5.22
4.19
3.31
2.55
1.85
1.15
0.45
-0.25
-0.93
-1.67
-2.58
-3.79
-5.34
-7.12
-8.86
-10.24
-11.00
-11.06
-10.54
-9.66
-8.62
-7.54
-6.41
-5.13
-3.67
-2.06
-0.44
1.03
2.20
3.02
3.52
3.74
3.76
3.60
3.33
3.04
2.81
2.73
2.84
3.12
3.53
3.98
4.41
4.77
4.97
4.99
4.84
4.56
4.28
4.09
4.00
3.93
3.80
3.55
3.20
2.85
2.60
2.48
2.43
2.37
2.23
2.02
1.79
1.56
1.29
0.89
0.28
-0.53
-1.37
-1.95
-1.97
-1.22
0.31
2.42
4.74
6.93
8.76
10.25
11.60
13.04
14.68
16.46
18.17
19.58
20.61
21.37
22.10
23.10
24.47
26.16
27.97
29.69
31.27
32.77
34.36
36.08
37.88
39.59
41.05
42.21
43.17
44.02
44.69
44.79
43.74
40.89
35.97
29.14
21.05
12.53
4.29
-3.27
-10.10
-16.30
-21.99
-27.21
-32.04
-36.65
-41.36
-46.45
-51.93
-57.39
-62.05
-65.09
-66.05
-64.99
-62.54
-59.52
-56.66
-54.20
-51.95
-49.41
-46.09
-41.86
-37.01
-32.17
-28.01
-24.94
-22.87
-21.25
-19.27
-16.25
-11.85
-6.23
0.11
6.57
12.65
18.08
22.80
26.82
30.15
32.73
34.41
34.95
34.10
31.64
27.50
21.90
15.37
8.66
2.61
-2.18
-5.44
-7.23
-7.84
-7.65
-6.94
-5.92
-4.70
-3.29
-1.66
0.35
2.91
6.11
9.88
13.88
17.64
20.64
22.53
23.17
22.67
21.31
19.44
17.36
15.20
12.96
10.50
7.67
4.40
0.80
-2.88
-6.41
-9.63
-12.61
-15.62
-18.97
-22.86
-27.22
-31.62
-35.45
-38.07
-39.00
-38.11
-35.57
-31.78
-27.24
-22.37
-17.53
-12.95
-8.78
-5.17
-2.31
-0.33
0.68
0.75
0.05
-1.14
-2.56
-4.03
-5.51
-7.02
-8.54
-9.92
-10.90
-11.16
-10.48
-8.89
-6.67
-4.30
-2.24
-0.81
-0.08
0.11
0.01
-0.09
-0.03
0.28
0.84
1.58
2.39
3.13
3.66
3.92
3.92
3.79
3.68
3.69
3.82
3.97
4.04
4.01
3.94
3.94
4.07
4.27
4.36
4.20
3.76
3.18
2.71
2.56
2.78
3.25
3.68
3.81
3.49
2.79
1.89
1.04
0.44
0.17
0.19
0.42
0.72
0.99
1.13
1.08
0.81
0.33
-0.28
-0.97
-1.71
-2.52
-3.49
-4.68
-6.05
-7.44
-8.62
-9.41
-9.73
-9.70
-9.49
-9.25
-8.97
-8.53
-7.75
-6.63
-5.34
-4.18
-3.44
-3.18
-3.21
-3.18
-2.80
-1.98
-0.89
0.13
0.72
0.52
-0.79
-3.48
-7.63
-12.95
-18.62
-23.39
-25.95
-25.48
-22.04
-16.69
-11.05
-6.70
-4.61
-4.82
-6.56
-8.64
-9.91
-9.62
-7.63
-4.45
-1.03
1.54
2.46
1.57
-0.49
-2.56
-3.34
-2.02
1.44
6.38
11.80
16.77
20.77
23.66
25.48
26.27
25.96
24.49
22.05
19.17
16.53
14.78
14.16
14.52
15.38
16.23
16.73
16.76
16.30
15.39
13.91
11.78
8.96
5.58
1.89
-1.81
-5.31
-8.49
-11.26
-13.59
-15.38
-16.53
-16.99
-16.79
-16.06
-15.07
-14.17
-13.76
-14.07
-15.08
-16.41
-17.38
-17.30
-15.68
-12.49
-8.13
-3.35
1.11
4.67
7.13
8.57
9.31
9.70
9.95
10.13
10.11
9.65
8.51
6.67
4.33
1.91
-0.14
-1.56
-2.33
-2.68
-2.91
-3.23
-3.66
-4.10
-4.47
-4.86
-5.59
-6.99
-9.27
-12.38
-15.92
-19.28
-21.78
-22.86
-22.31
-20.32
-17.26
-13.70
-10.21
-7.31
-5.19
-3.71
-2.37
-0.82
1.02
2.92
4.14
3.68
0.64
-5.22
-13.22
-21.77
-29.21
-34.07
-35.16
-31.83
-24.21
-13.25
-0.64
11.37
20.60
24.99
23.53
17.51
9.71
3.49
0.65
0.47
-0.40
-2.65
-5.72
-8.56
-10.24
-9.40
-6.17
-1.50
3.44
7.83
11.55
14.48
16.58
17.96
18.67
18.60
17.67
15.93
13.68
11.51
9.77
8.75
8.65
9.48
10.90
12.32
13.23
13.41
13.13
12.76
12.69
13.15
14.12
15.23
16.03
16.23
15.77
14.92
13.90
12.91
12.02
11.25
10.52
9.77
8.99
8.23
7.54
6.92
6.35
5.75
5.08
4.29
3.40
2.47
1.61
0.96
0.62
0.65
0.99
1.52
2.13
2.75
3.35
4.01
4.76
5.62
6.52
7.35
8.00
8.48
8.87
9.39
10.29
11.80
14.01
16.77
19.66
21.95
22.82
21.54
17.75
11.61
3.81
-4.64
-12.71
-19.60
-24.85
-28.37
-30.30
-30.96
-30.72
-30.01
-29.23
-28.69
-28.48
-28.48
-28.36
-27.73
-26.29
-23.94
-20.84
-17.35
-13.88
-10.79
-8.23
-6.16
-4.36
-2.62
-0.84
0.92
2.49
3.67
4.40
4.78
5.05
5.40
5.94
6.57
7.09
7.29
7.12
6.70
6.25
5.95
5.81
5.68
5.34
4.72
3.94
3.30
3.09
3.40
4.03
4.63
4.84
4.51
3.70
2.61
1.44
0.25
-0.92
-2.07
-3.03
-3.58
-3.48
-2.62
-1.12
0.68
2.41
3.82
4.82
5.51
6.03
6.44
6.69
6.67
6.24
5.37
4.11
2.59
0.97
-0.61
-2.03
-3.21
-4.08
-4.62
-4.84
-4.80
-4.56
-4.15
-3.60
-2.93
-2.24
-1.66
-1.29
-1.22
-1.43
-1.86
-2.40
-2.98
-3.52
-3.97
-4.30
-4.51
-4.62
-4.67
-4.71
-4.81
-5.03
-5.41
-5.95
-6.57
-7.11
-7.40
-7.29
-6.69
-5.62
-4.19
-2.58
-0.95
0.57
1.93
3.07
3.98
4.70
5.28
5.83
6.42
7.08
7.80
8.51
9.10
9.44
9.44
9.13
8.57
7.93
7.36
6.96
6.73
6.45
5.86
4.83
3.52
2.18
1.16
0.54
0.31
0.32
0.10
-0.74
-2.23
-4.01
-5.62
-6.61
-6.95
-6.82
-6.47
-6.64
-7.90
-10.29
-13.23
-15.99
-17.85
-18.77
-18.94
-18.60
-18.64
-19.85
-22.45
-26.15
-30.65
-35.58
-41.27
-47.92
-51.23
-48.04
-38.14
-24.30
-9.66
2.17
12.36
21.76
30.68
39.04
45.88
49.88
50.36
47.62
42.60
36.77
31.07
26.20
22.58
19.70
16.82
13.52
9.95
6.54
3.96
2.34
1.59
1.55
1.60
1.21
0.29
-0.88
-1.90
-2.39
-2.49
-2.49
-2.60
-2.99
-3.62
-4.20
-4.37
-3.94
-2.89
-1.55
-0.27
0.72
1.32
1.58
1.69
1.82
2.12
2.57
3.04
3.35
3.37
3.04
2.47
1.85
1.42
1.35
1.64
2.11
2.47
2.44
1.87
0.78
-0.66
-2.21
-3.63
-4.74
-5.41
-5.56
-5.15
-4.19
-2.83
-1.29
0.12
1.12
1.55
1.44
0.98
0.44
0.08
-0.01
0.12
0.29
0.30
0.10
-0.21
-0.37
-0.13
0.63
1.83
3.22
4.52
5.55
6.24
6.67
6.95
7.13
7.23
7.22
7.09
6.86
6.55
6.19
5.79
5.35
4.87
4.38
3.90
3.44
2.96
2.47
1.96
1.49
1.08
0.72
0.36
-0.04
-0.50
-0.98
-1.37
-1.64
-1.80
-1.96
-2.22
-2.66
-3.26
-3.90
-4.45
-4.82
-5.00
-5.07
-5.12
-5.25
-5.47
-5.73
-5.92
-5.94
-5.71
-5.19
-4.42
-3.48
-2.44
-1.36
-0.29
0.72
1.58
2.17
2.40
2.23
1.72
1.05
0.45
0.11
0.11
0.39
0.83
1.29
1.71
2.10
2.49
2.89
3.23
3.41
3.35
3.02
2.50
1.86
1.20
0.51
-0.22
-1.08
-2.10
-3.25
-4.47
-5.63
-6.67
-7.56
-8.39
-9.26
-10.24
-11.32
-12.34
-13.12
-13.52
-13.49
-13.11
-12.49
-11.70
-10.77
-9.66
-8.40
-7.05
-5.77
-4.70
-3.90
-3.29
-2.73
-2.06
-1.20
-0.20
0.80
1.66
2.32
2.83
3.31
3.89
4.64
5.53
6.43
7.21
7.75
8.01
7.99
7.73
7.32
6.88
6.49
6.19
6.00
5.82
5.58
5.20
4.67
4.02
3.29
2.48
1.59
0.66
-0.21
-0.84
-1.07
-0.79
-0.07
0.91
1.99
3.03
4.01
4.95
5.80
6.46
6.79
6.72
6.31
5.74
5.21
4.82
4.56
4.38
4.22
4.07
3.95
3.83
3.63
3.22
2.55
1.70
0.86
0.24
-0.05
-0.05
0.05
0.03
-0.25
-0.80
-1.50
-2.20
-2.81
-3.32
-3.80
-4.34
-5.01
-5.74
-6.40
-6.78
-6.71
-6.09
-4.96
-3.47
-1.80
-0.14
1.37
2.64
3.65
4.41
4.97
5.37
5.68
5.91
6.07
6.14
6.14
6.14
6.20
6.39
6.65
6.87
6.92
6.77
6.47
6.21
6.15
6.36
6.75
7.17
7.45
7.50
7.32
6.96
6.45
5.79
4.98
3.98
2.79
1.40
-0.20
-1.96
-3.79
-5.51
-6.92
-7.84
-8.15
-7.87
-7.09
-5.98
-4.78
-3.72
-3.00
-2.72
-2.85
-3.23
-3.65
-3.94
-4.03
-4.00
-3.98
-4.08
-4.30
-4.56
-4.71
-4.68
-4.50
-4.30
-4.25
-4.42
-4.79
-5.24
-5.61
-5.83
-5.88
-5.86
-5.88
-6.04
-6.38
-6.93
-7.65
-8.53
-9.53
-10.55
-11.46
-12.15
-12.51
-12.55
-12.37
-12.11
-11.89
-11.77
-11.72
-11.65
-11.47
-11.16
-10.72
-10.16
-9.51
-8.75
-7.89
-6.95
-6.02
-5.19
-4.54
-4.07
-3.68
-3.21
-2.45
-1.27
0.41
2.54
5.04
7.77
10.64
13.52
16.35
19.08
21.71
24.25
26.68
28.89
30.69
31.87
32.26
31.86
30.81
29.36
27.80
26.37
25.27
24.59
24.38
24.55
24.93
25.24
25.19
24.61
23.46
21.85
19.92
17.71
15.16
12.10
8.41
4.16
-0.39
-4.86
-8.90
-12.38
-15.31
-17.85
-20.19
-22.39
-24.46
-26.38
-28.14
-29.71
-31.01
-31.83
-31.88
-30.93
-28.93
-26.09
-22.87
-19.77
-17.14
-15.11
-13.58
-12.33
-11.17
-10.05
-9.05
-8.34
-8.02
-8.06
-8.30
-8.47
-8.37
-7.94
-7.28
-6.59
-6.09
-5.89
-5.98
-6.28
-6.67
-7.03
-7.32
-7.51
-7.57
-7.47
-7.19
-6.78
-6.29
-5.79
-5.32
-4.92
-4.57
-4.30
-4.15
-4.22
-4.61
-5.37
-6.46
-7.72
-8.96
-10.00
-10.81
-11.44
-12.06
-12.87
-13.97
-15.37
-16.93
-18.39
-19.45
-19.87
-19.53
-18.47
-16.91
-15.09
-13.27
-11.59
-10.14
-8.96
-8.13
-7.81
-8.17
-9.42
-11.70
-15.13
-19.77
-25.52
-31.96
-38.26
-43.24
-45.66
-44.62
-40.00
-32.46
-23.23
-13.55
-4.29
4.30
12.40
20.32
28.13
35.54
42.06
47.19
50.63
52.37
52.56
51.41
49.03
45.54
41.11
36.07
30.92
26.17
22.21
19.14
16.74
14.59
12.22
9.30
5.72
1.59
-2.82
-7.21
-11.31
-14.92
-17.93
-20.31
-22.11
-23.51
-24.74
-26.04
-27.58
-29.36
-31.18
-32.75
-33.76
-34.04
-33.56
-32.40
-30.60
-28.17
-25.10
-21.43
-17.40
-13.39
-9.78
-6.84
-4.59
-2.83
-1.21
0.60
2.75
5.18
7.64
9.84
11.52
12.59
13.11
13.25
13.18
13.00
12.72
12.28
11.67
10.96
10.29
9.82
9.58
9.50
9.39
9.05
8.35
7.26
5.86
4.33
2.92
1.86
1.40
1.68
2.73
4.44
6.63
9.06
11.56
14.03
16.45
18.77
20.92
22.81
24.40
25.67
26.68
27.47
28.13
28.69
29.21
29.73
30.24
30.64
30.77
30.36
29.19
27.12
24.17
20.54
16.58
12.68
9.20
6.42
4.43
3.09
2.13
1.15
-0.21
-2.14
-4.60
-7.37
-10.18
-12.77
-15.03
-16.95
-18.58
-19.96
-21.05
-21.77
-21.99
-21.67
-20.80
-19.47
-17.82
-16.02
-14.18
-12.35
-10.53
-8.75
-7.08
-5.65
-4.57
-3.90
-3.52
-3.18
-2.56
-1.42
0.34
2.60
5.13
7.68
10.03
12.03
13.58
14.63
15.16
15.22
14.93
14.39
13.73
12.99
12.19
11.34
10.45
9.62
8.91
8.32
7.75
7.03
5.96
4.47
2.58
0.46
-1.66
-3.46
-4.65
-5.04
-4.54
-3.27
-1.49
0.48
2.37
4.08
5.66
7.17
8.65
10.05
11.22
12.07
12.63
13.03
13.46
14.07
14.83
15.58
16.07
16.13
15.72
15.00
14.21
13.56
13.14
12.86
12.51
11.90
10.90
9.55
8.04
6.52
5.16
4.04
3.14
2.40
1.69
0.84
-0.30
-1.78
-3.49
-5.16
-6.43
-7.01
-6.74
-5.72
-4.19
-2.51
-1.01
0.07
0.66
0.76
0.43
-0.24
-1.15
-2.21
-3.35
-4.45
-5.43
-6.19
-6.64
-6.70
-6.35
-5.62
-4.59
-3.43
-2.35
-1.53
-1.10
-1.08
-1.39
-1.85
-2.33
-2.76
-3.17
-3.67
-4.35
-5.25
-6.29
-7.34
-8.23
-8.81
-8.96
-8.58
-7.68
-6.25
-4.39
-2.22
0.13
2.53
4.84
6.94
8.69
10.01
10.83
11.21
11.34
11.42
11.66
12.08
12.58
12.95
12.96
12.41
11.21
9.33
6.79
3.68
0.16
-3.47
-6.85
-9.60
-11.48
-12.45
-12.69
-12.48
-12.04
-11.51
-10.92
-10.29
-9.66
-9.08
-8.57
-7.97
-7.01
-5.39
-2.93
0.30
4.02
7.89
11.67
15.27
18.77
22.26
25.70
28.90
31.49
33.04
33.21
31.82
28.92
24.84
20.08
15.19
10.63
6.66
3.33
0.51
-1.97
-4.20
-6.23
-8.07
-9.79
-11.48
-13.24
-15.13
-17.06
-18.84
-20.20
-20.93
-20.92
-20.20
-18.93
-17.34
-15.65
-13.99
-12.36
-10.65
-8.66
-6.24
-3.30
0.09
3.73
7.38
10.79
13.79
16.35
18.54
20.53
22.46
24.40
26.33
28.13
29.65
30.69
31.00
30.26
28.15
24.46
19.28
13.04
6.45
0.30
-4.78
-8.46
-10.75
-11.84
-11.98
-11.47
-10.61
-9.75
-9.24
-9.36
-10.16
-11.49
-13.06
-14.54
-15.70
-16.39
-16.59
-16.31
-15.60
-14.52
-13.19
-11.73
-10.30
-8.99
-7.84
-6.79
-5.76
-4.69
-3.57
-2.51
-1.63
-1.05
-0.82
-0.84
-0.96
-0.98
-0.77
-0.29
0.43
1.25
2.02
2.63
2.98
3.09
3.02
2.89
2.82
2.84
2.91
2.92
2.75
2.32
1.63
0.78
-0.11
-0.92
-1.62
-2.28
-2.97
-3.74
-4.56
-5.32
-5.90
-6.25
-6.38
-6.37
-6.28
-6.12
-5.84
-5.36
-4.60
-3.59
-2.40
-1.20
-0.14
0.67
1.18
1.43
1.52
1.54
1.57
1.62
1.66
1.64
1.53
1.37
1.21
1.10
1.08
1.11
1.12
1.01
0.71
0.19
-0.52
-1.33
-2.12
-2.82
-3.38
-3.79
-4.06
-4.20
-4.21
-4.15
-4.11
-4.21
-4.57
-5.22
-6.10
-7.11
-8.12
-9.02
-9.74
-10.24
-10.47
-10.40
-10.00
-9.28
-8.23
-6.89
-5.30
-3.52
-1.68
0.09
1.61
2.76
3.46
3.73
3.64
3.29
2.80
2.30
1.92
1.77
1.95
2.49
3.29
4.19
4.93
5.31
5.24
4.79
4.12
3.44
2.87
2.42
1.99
1.45
0.73
-0.14
-1.06
-1.94
-2.69
-3.35
-3.98
-4.65
-5.43
-6.30
-7.23
-8.13
-8.87
-9.34
-9.44
-9.13
-8.40
-7.31
-5.96
-4.48
-3.00
-1.61
-0.36
0.73
1.69
2.52
3.21
3.74
4.10
4.34
4.50
4.61
4.63
4.54
4.29
3.92
3.54
3.26
3.13
3.12
3.11
3.04
2.90
2.76
2.71
2.76
2.85
2.84
2.62
2.13
1.44
0.68
0.00
-0.51
-0.85
-1.07
-1.29
-1.61
-2.05
-2.61
-3.24
-3.91
-4.59
-5.29
-5.95
-6.46
-6.65
-6.35
-5.49
-4.13
-2.49
-0.84
0.60
1.74
2.62
3.39
4.13
4.90
5.62
6.18
6.47
6.43
6.07
5.44
4.59
3.55
2.42
1.32
0.44
0.05
0.33
1.32
2.90
4.75
6.48
7.80
8.51
8.65
8.39
7.89
7.31
6.65
5.88
4.93
3.79
2.51
1.16
-0.17
-1.41
-2.53
-3.45
-4.15
-4.66
-5.09
-5.61
-6.37
-7.37
-8.39
-9.07
-9.01
-7.99
-6.08
-3.68
-1.36
0.35
1.13
1.02
0.35
-0.40
-0.81
-0.64
0.02
0.92
1.67
2.07
2.13
2.15
2.51
3.55
5.31
7.57
9.96
12.10
13.74
14.83
15.47
15.84
16.30
17.33
19.42
22.86
27.46
32.37
36.34
38.16
37.15
33.51
28.16
22.31
16.87
12.22
8.21
4.50
0.85
-2.73
-6.12
-9.24
-12.17
-15.08
-18.06
-21.01
-23.61
-25.52
-26.52
-26.63
-26.08
-25.15
-24.09
-23.03
-22.00
-21.01
-20.10
-19.33
-18.69
-18.08
-17.27
-15.96
-13.92
-11.08
-7.62
-3.83
0.00
3.79
7.65
11.87
16.66
22.02
27.66
33.14
37.94
41.62
43.86
44.48
43.44
40.94
37.40
33.35
29.18
24.86
19.87
13.44
5.01
-5.30
-16.55
-27.22
-35.82
-41.41
-43.89
-43.83
-42.07
-39.38
-36.22
-32.81
-29.26
-25.68
-22.19
-18.81
-15.44
-11.87
-7.96
-3.70
0.72
5.06
9.13
12.83
16.16
19.13
21.66
23.64
24.97
25.59
25.49
24.73
23.41
21.69
19.81
18.07
16.73
15.89
15.47
15.17
14.65
13.59
11.87
9.55
6.73
3.56
0.13
-3.47
-7.10
-10.55
-13.59
-16.01
-17.74
-18.82
-19.38
-19.56
-19.47
-19.20
-18.91
-18.92
-19.76
-21.96
-25.78
-30.91
-36.39
-40.91
-43.27
-42.86
-39.87
-35.11
-29.59
-24.09
-18.93
-14.10
-9.60
-5.65
-2.72
-1.32
-1.64
-3.35
-5.69
-7.78
-9.11
-9.87
-10.92
-13.44
-18.39
-25.94
-35.26
-44.79
-52.80
-57.97
-59.73
-58.22
-54.03
-47.86
-40.41
-32.48
-24.98
-18.90
-15.01
-13.52
-13.96
-15.40
-16.80
-17.43
-17.09
-16.03
-14.68
-13.42
-12.42
-11.68
-11.08
-10.39
-9.23
-7.15
-3.68
1.39
7.97
15.59
23.57
31.12
37.51
42.07
44.17
43.22
38.82
31.05
20.69
9.23
-1.42
-9.51
-14.00
-14.81
-12.77
-9.07
-4.80
-0.54
3.59
7.76
12.01
16.12
19.74
22.57
24.54
25.82
26.61
26.89
26.33
24.39
20.56
14.77
7.66
0.57
-4.82
-7.12
-5.80
-1.41
4.64
10.68
15.49
18.68
20.56
21.62
21.99
21.19
18.39
12.99
5.14
-4.13
-13.24
-20.69
-25.53
-27.51
-26.83
-23.86
-18.95
-12.62
-5.76
0.26
3.94
4.13
0.68
-5.53
-12.89
-19.82
-25.40
-29.49
-32.40
-34.32
-34.94
-33.48
-29.10
-21.27
-10.06
3.88
19.37
34.94
48.95
59.84
66.53
68.78
67.33
63.66
59.41
55.74
52.93
50.46
47.39
42.88
36.46
28.10
18.16
7.36
-3.17
-11.94
-17.44
-18.68
-15.63
-9.48
-2.21
4.11
8.02
9.08
7.70
4.73
0.98
-3.01
-6.89
-10.29
-12.73
-13.85
-13.57
-12.24
-10.50
-8.97
-7.95
-7.33
-6.76
-5.92
-4.72
-3.32
-2.00
-1.00
-0.38
-0.05
0.15
0.37
0.72
1.23
1.89
2.61
3.14
3.15
2.31
0.47
-2.16
-5.07
-7.57
-9.12
-9.51
-9.01
-8.15
-7.43
-7.08
-6.95
-6.69
-5.93
-4.58
-2.84
-1.08
0.37
1.38
2.05
2.57
3.08
3.61
4.04
4.25
4.21
4.06
3.97
4.08
4.42
4.87
5.29
5.60
5.81
5.99
6.20
6.39
6.45
6.24
5.70
4.88
3.89
2.87
1.89
0.95
0.05
-0.80
-1.58
-2.29
-3.00
-3.86
-5.01
-6.54
-8.37
-10.24
-11.79
-12.64
-12.58
-11.59
-9.92
-7.92
-5.99
-4.36
-3.07
-1.95
-0.79
0.53
1.99
3.44
4.71
5.67
6.35
6.83
7.20
7.53
7.84
8.11
8.34
8.50
8.56
8.50
8.30
7.98
7.60
7.21
6.85
6.48
6.08
5.65
5.23
4.89
4.63
4.40
4.10
3.62
2.89
1.97
0.95
-0.04
-0.92
-1.69
-2.37
-3.06
-3.84
-4.75
-5.73
-6.70
-7.51
-8.06
-8.27
-8.17
-7.83
-7.33
-6.69
-5.93
-5.00
-3.93
-2.77
-1.57
-0.37
0.83
2.08
3.35
4.57
5.60
6.31
6.70
6.83
6.91
7.07
7.39
7.82
8.27
8.63
8.85
8.92
8.83
8.59
8.22
7.78
7.33
6.95
6.68
6.50
6.36
6.17
5.87
5.43
4.89
4.29
3.72
3.22
2.82
2.47
2.09
1.62
1.02
0.31
-0.46
-1.28
-2.16
-3.13
-4.19
-5.24
-6.16
-6.83
-7.22
-7.34
-7.27
-7.06
-6.66
-6.00
-5.00
-3.69
-2.20
-0.76
0.44
1.33
1.97
2.48
2.92
3.31
3.59
3.70
3.68
3.63
3.66
3.84
4.15
4.52
4.88
5.22
5.54
5.84
6.05
6.05
5.73
5.06
4.14
3.18
2.38
1.92
1.82
1.97
2.14
2.13
1.81
1.15
0.28
-0.63
-1.42
-2.00
-2.42
-2.75
-3.14
-3.66
-4.35
-5.13
-5.88
-6.47
-6.81
-6.87
-6.69
-6.31
-5.74
-5.01
-4.10
-3.09
-2.07
-1.21
-0.63
-0.36
-0.27
-0.16
0.14
0.69
1.38
2.00
2.33
2.31
2.00
1.59
1.30
1.23
1.36
1.60
1.80
1.88
1.84
1.79
1.83
2.01
2.27
2.42
2.31
1.83
1.01
0.00
-0.98
-1.75
-2.21
-2.37
-2.33
-2.26
-2.28
-2.50
-2.97
-3.66
-4.50
-5.36
-6.11
-6.60
-6.72
-6.42
-5.74
-4.77
-3.71
-2.71
-1.87
-1.19
-0.58
0.07
0.78
1.49
2.04
2.28
2.15
1.75
1.30
1.03
1.02
1.23
1.48
1.63
1.62
1.55
1.57
1.79
2.19
2.63
2.92
2.93
2.63
2.15
1.62
1.17
0.79
0.43
0.02
-0.47
-0.98
-1.42
-1.71
-1.80
-1.74
-1.65
-1.66
-1.89
-2.38
-3.09
-3.93
-4.78
-5.51
-6.01
-6.20
-6.06
-5.63
-4.97
-4.17
-3.32
-2.52
-1.81
-1.24
-0.82
-0.50
-0.25
-0.05
0.07
0.04
-0.15
-0.46
-0.75
-0.88
-0.78
-0.49
-0.18
0.00
-0.02
-0.17
-0.30
-0.29
-0.11
0.16
0.38
0.48
0.45
0.33
0.14
-0.16
-0.58
-1.11
-1.67
-2.11
-2.32
-2.29
-2.15
-2.07
-2.25
-2.75
-3.52
-4.38
-5.13
-5.59
-5.67
-5.40
-4.88
-4.20
-3.45
-2.65
-1.85
-1.09
-0.48
-0.12
-0.03
-0.15
-0.33
-0.40
-0.29
-0.03
0.25
0.46
0.59
0.70
0.83
0.99
1.08
1.03
0.83
0.62
0.59
0.84
1.31
1.83
2.17
2.18
1.87
1.33
0.67
-0.01
-0.66
-1.25
-1.77
-2.24
-2.72
-3.31
-4.05
-4.92
-5.76
-6.38
-6.61
-6.44
-5.95
-5.26
-4.44
-3.53
-2.56
-1.59
-0.75
-0.11
0.32
0.60
0.84
1.11
1.43
1.74
1.98
2.11
2.11
2.01
1.85
1.71
1.67
1.79
2.05
2.34
2.48
2.34
1.94
1.36
0.76
0.22
-0.27
-0.78
-1.36
-1.99
-2.58
-3.04
-3.40
-3.80
-4.43
-5.40
-6.62
-7.82
-8.63
-8.82
-8.34
-7.36
-6.16
-5.00
-4.01
-3.17
-2.38
-1.54
-0.69
0.08
0.60
0.82
0.77
0.64
0.63
0.87
1.36
1.95
2.47
2.84
3.08
3.25
3.40
3.50
3.46
3.25
2.93
2.66
2.56
2.63
2.71
2.57
2.11
1.36
0.54
-0.16
-0.63
-0.94
-1.25
-1.69
-2.31
-3.09
-3.95
-4.82
-5.60
-6.17
-6.42
-6.24
-5.64
-4.72
-3.66
-2.64
-1.79
-1.11
-0.53
0.09
0.79
1.55
2.26
2.82
3.19
3.37
3.48
3.62
3.85
4.16
4.49
4.75
4.89
4.92
4.90
4.89
4.97
5.13
5.31
5.42
5.32
4.91
4.21
3.30
2.32
1.40
0.63
0.02
-0.49
-0.94
-1.38
-1.88
-2.50
-3.26
-4.11
-4.92
-5.52
-5.78
-5.68
-5.32
-4.79
-4.20
-3.51
-2.69
-1.68
-0.53
0.60
1.53
2.15
2.46
2.57
2.64
2.79
3.04
3.36
3.68
3.94
4.15
4.34
4.57
4.88
5.24
5.54
5.65
5.48
5.05
4.43
3.76
3.14
2.61
2.10
1.54
0.90
0.24
-0.31
-0.67
-0.82
-0.85
-0.87
-0.98
-1.23
-1.67
-2.34
-3.28
-4.48
-5.73
-6.75
-7.21
-6.93
-6.00
-4.73
-3.47
-2.48
-1.74
-1.11
-0.41
0.42
1.28
2.03
2.56
2.89
3.11
3.38
3.78
4.33
4.93
5.44
5.78
5.90
5.88
5.83
5.88
6.06
6.29
6.41
6.28
5.86
5.20
4.46
3.76
3.16
2.67
2.26
1.91
1.63
1.42
1.25
1.04
0.75
0.34
-0.13
-0.59
-0.98
-1.34
-1.76
-2.40
-3.33
-4.52
-5.78
-6.82
-7.38
-7.33
-6.68
-5.62
-4.35
-3.09
-1.91
-0.85
0.12
0.97
1.64
2.05
2.20
2.11
1.91
1.73
1.67
1.82
2.17
2.74
3.50
4.38
5.24
5.89
6.11
5.80
4.97
3.80
2.57
1.56
0.97
0.86
1.09
1.46
1.72
1.73
1.46
1.04
0.59
0.21
-0.09
-0.35
-0.62
-0.87
-1.07
-1.14
-1.09
-1.04
-1.16
-1.63
-2.53
-3.82
-5.27
-6.58
-7.43
-7.60
-7.07
-6.01
-4.71
-3.48
-2.49
-1.78
-1.25
-0.76
-0.21
0.41
1.03
1.56
1.95
2.22
2.43
2.68
3.03
3.46
3.88
4.14
4.15
3.93
3.63
3.42
3.41
3.56
3.75
3.82
3.73
3.52
3.31
3.13
2.97
2.72
2.28
1.64
0.91
0.25
-0.21
-0.40
-0.36
-0.21
-0.08
-0.11
-0.38
-0.91
-1.66
-2.53
-3.41
-4.18
-4.73
-4.99
-4.88
-4.44
-3.76
-3.01
-2.34
-1.82
-1.40
-0.98
-0.47
0.12
0.70
1.15
1.42
1.55
1.61
1.63
1.62
1.54
1.41
1.30
1.29
1.46
1.79
2.17
2.46
2.56
2.40
2.01
1.45
0.84
0.34
0.05
0.02
0.19
0.42
0.53
0.43
0.11
-0.36
-0.90
-1.48
-2.12
-2.85
-3.65
-4.46
-5.19
-5.75
-6.10
-6.19
-5.97
-5.40
-4.47
-3.23
-1.85
-0.52
0.58
1.34
1.75
1.87
1.77
1.54
1.21
0.87
0.60
0.53
0.72
1.17
1.82
2.51
3.07
3.40
3.42
3.15
2.68
2.17
1.76
1.56
1.58
1.74
1.89
1.90
1.70
1.29
0.76
0.20
-0.30
-0.70
-1.00
-1.22
-1.42
-1.70
-2.19
-2.98
-4.04
-5.18
-6.10
-6.54
-6.35
-5.62
-4.61
-3.59
-2.76
-2.17
-1.77
-1.44
-1.13
-0.83
-0.54
-0.29
-0.07
0.11
0.23
0.25
0.20
0.13
0.12
0.23
0.49
0.87
1.34
1.85
2.37
2.87
3.27
3.49
3.48
3.23
2.78
2.23
1.63
0.98
0.30
-0.41
-1.09
-1.65
-2.00
-2.16
-2.24
-2.41
-2.82
-3.57
-4.59
-5.69
-6.56
-6.95
-6.66
-5.71
-4.31
-2.80
-1.49
-0.56
-0.05
0.19
0.33
0.48
0.65
0.78
0.81
0.77
0.74
0.83
1.08
1.44
1.78
2.01
2.05
1.95
1.80
1.73
1.82
2.07
2.41
2.73
2.88
2.79
2.43
1.82
1.02
0.12
-0.76
-1.53
-2.06
-2.28
-2.23
-2.01
-1.84
-1.92
-2.35
-3.10
-4.01
-4.88
-5.53
-5.89
-5.93
-5.67
-5.12
-4.29
-3.28
-2.23
-1.31
-0.61
-0.11
0.27
0.64
0.97
1.19
1.18
0.96
0.72
0.64
0.88
1.35
1.80
1.99
1.86
1.53
1.28
1.27
1.52
1.86
2.10
2.12
1.93
1.64
1.29
0.85
0.23
-0.60
-1.59
-2.54
-3.28
-3.72
-3.94
-4.12
-4.39
-4.82
-5.31
-5.68
-5.75
-5.46
-4.83
-3.98
-3.06
-2.21
-1.50
-0.97
-0.57
-0.22
0.16
0.64
1.14
1.53
1.67
1.54
1.23
0.97
0.97
1.32
1.94
2.63
3.18
3.47
3.50
3.34
3.10
2.83
2.58
2.36
2.14
1.86
1.44
0.85
0.13
-0.61
-1.22
-1.57
-1.68
-1.65
-1.66
-1.87
-2.38
-3.15
-4.11
-5.11
-6.04
-6.76
-7.16
-7.19
-6.83
-6.17
-5.36
-4.54
-3.81
-3.19
-2.66
-2.15
-1.60
-1.01
-0.40
0.23
0.84
1.43
2.00
2.58
3.17
3.73
4.15
4.31
4.15
3.69
3.13
2.71
2.61
2.86
3.29
3.64
3.72
3.51
3.08
2.61
2.15
1.69
1.17
0.59
0.00
-0.47
-0.77
-0.97
-1.22
-1.65
-2.29
-3.04
-3.76
-4.36
-4.83
-5.24
-5.59
-5.79
-5.70
-5.22
-4.34
-3.18
-1.94
-0.79
0.17
0.91
1.48
1.90
2.22
2.46
2.63
2.74
2.80
2.82
2.82
2.88
3.02
3.21
3.37
3.40
3.27
3.09
2.99
3.10
3.42
3.76
3.89
3.63
2.93
1.94
0.90
0.02
-0.60
-0.98
-1.28
-1.65
-2.19
-2.95
-3.88
-4.85
-5.74
-6.37
-6.64
-6.50
-5.98
-5.14
-4.09
-2.90
-1.67
-0.48
0.56
1.38
1.96
2.33
2.52
2.63
2.74
2.92
3.20
3.60
4.09
4.59
4.93
4.98
4.69
4.14
3.59
3.28
3.34
3.69
4.08
4.23
4.00
3.45
2.78
2.17
1.73
1.41
1.10
0.66
0.05
-0.75
-1.68
-2.71
-3.77
-4.79
-5.65
-6.25
-6.50
-6.39
-5.96
-5.30
-4.47
-3.53
-2.52
-1.51
-0.56
0.24
0.86
1.29
1.60
1.91
2.28
2.78
3.35
3.93
4.40
4.72
4.89
4.92
4.85
4.70
4.47
4.20
3.95
3.80
3.77
3.85
3.95
3.95
3.78
3.41
2.92
2.40
1.93
1.55
1.20
0.79
0.23
-0.54
-1.48
-2.52
-3.56
-4.45
-5.07
-5.35
-5.25
-4.81
-4.11
-3.25
-2.31
-1.38
-0.47
0.41
1.22
1.95
2.55
3.03
3.41
3.74
4.08
4.42
4.72
4.91
4.93
4.78
4.51
4.23
4.02
3.96
4.05
4.23
4.40
4.46
4.34
4.03
3.59
3.14
2.78
2.52
2.29
1.95
1.39
0.61
-0.32
-1.30
-2.27
-3.27
-4.32
-5.39
-6.28
-6.76
-6.67
-6.02
-5.00
-3.83
-2.66
-1.49
-0.28
0.99
2.17
3.05
3.49
3.53
3.36
3.24
3.31
3.54
3.78
3.91
3.91
3.84
3.79
3.80
3.86
3.93
3.99
4.05
4.07
3.97
3.67
3.11
2.41
1.75
1.29
1.08
1.01
0.90
0.59
0.09
-0.54
-1.21
-1.90
-2.69
-3.60
-4.59
-5.49
-6.07
-6.17
-5.79
-5.06
-4.19
-3.36
-2.64
-2.00
-1.41
-0.82
-0.19
0.42
0.96
1.39
1.66
1.84
2.00
2.23
2.56
2.92
3.18
3.22
3.03
2.73
2.54
2.64
3.00
3.50
3.87
3.88
3.42
2.53
1.44
0.53
0.08
0.13
0.53
0.89
0.72
-0.41
-2.60
-5.55
-8.45
-10.55
-11.47
-11.19
-10.11
-8.90
-8.15
-8.19
-8.85
-9.44
-9.47
-8.93
-7.97
-7.02
-6.67
-7.55
-10.27
-15.29
-22.30
-30.41
-37.98
-42.24
-40.43
-30.94
-14.27
6.68
25.84
39.72
48.35
51.68
50.80
46.89
40.73
32.74
23.57
14.39
7.15
3.29
3.09
5.88
10.08
13.79
15.36
13.92
9.53
3.24
-3.82
-10.88
-17.33
-22.93
-27.66
-31.47
-34.14
-35.32
-34.56
-31.85
-27.63
-22.52
-17.14
-11.98
-7.40
-3.62
-0.76
1.24
2.57
3.44
4.20
5.13
6.34
7.83
9.51
11.33
13.32
15.51
17.84
20.22
22.53
24.64
26.47
27.97
29.11
29.85
30.20
30.13
29.65
28.72
27.32
25.45
23.25
20.95
18.82
17.11
15.89
15.08
14.47
13.75
12.62
10.83
8.25
4.96
1.22
-2.56
-5.96
-8.64
-10.48
-11.61
-12.27
-12.78
-13.45
-14.53
-16.17
-18.43
-21.24
-24.31
-27.25
-29.62
-31.08
-31.54
-31.12
-30.12
-28.90
-27.73
-26.75
-25.90
-24.99
-23.75
-21.98
-19.65
-16.95
-14.23
-11.84
-9.94
-8.42
-6.96
-5.22
-3.06
-0.60
1.84
3.96
5.58
6.74
7.57
8.18
8.60
8.84
8.93
8.98
9.17
9.64
10.46
11.57
12.86
14.16
15.33
16.28
16.95
17.36
17.55
17.60
17.59
17.52
17.39
17.19
16.93
16.71
16.63
16.80
17.22
17.75
18.18
18.23
17.76
16.74
15.34
13.80
12.36
11.14
10.04
8.80
7.07
4.55
1.13
-3.08
-7.77
-12.53
-16.93
-20.57
-23.19
-24.67
-25.11
-24.81
-24.17
-23.60
-23.34
-23.37
-23.49
-23.42
-22.95
-22.03
-20.74
-19.21
-17.55
-15.80
-14.02
-12.26
-10.64
-9.21
-8.01
-6.97
-5.97
-4.94
-3.82
-2.66
-1.53
-0.47
0.47
1.33
2.14
2.97
3.86
4.87
6.10
7.57
9.29
11.09
12.69
13.72
13.92
13.26
11.96
10.52
9.45
9.17
9.81
11.22
13.03
14.82
16.25
17.17
17.67
18.00
18.46
19.27
20.49
22.01
23.63
25.21
26.75
28.39
30.37
32.87
35.97
39.72
44.13
49.19
54.75
60.31
65.03
67.83
67.79
64.56
58.61
51.07
43.31
36.43
30.91
26.61
23.06
19.79
16.54
13.24
9.81
6.08
1.78
-3.20
-8.68
-14.13
-18.82
-22.18
-23.99
-24.50
-24.24
-23.72
-23.22
-22.67
-21.84
-20.50
-18.58
-16.20
-13.56
-10.84
-8.17
-5.68
-3.59
-2.18
-1.67
-2.15
-3.42
-5.08
-6.67
-7.86
-8.58
-8.96
-9.24
-9.61
-10.17
-10.92
-11.88
-13.07
-14.52
-16.15
-17.78
-19.11
-19.86
-19.91
-19.43
-18.79
-18.41
-18.63
-19.55
-21.07
-22.91
-24.78
-26.41
-27.60
-28.27
-28.47
-28.37
-28.24
-28.28
-28.58
-29.02
-29.34
-29.29
-28.73
-27.70
-26.39
-24.99
-23.63
-22.30
-20.89
-19.29
-17.42
-15.31
-13.05
-10.76
-8.58
-6.63
-5.02
-3.82
-2.95
-2.15
-0.89
1.41
5.14
10.16
15.77
20.89
24.46
25.94
25.49
23.78
21.60
19.43
17.26
14.80
11.81
8.36
4.86
1.82
-0.45
-2.01
-3.22
-4.44
-5.89
-7.48
-8.92
-9.90
-10.28
-10.11
-9.60
-8.98
-8.38
-7.82
-7.20
-6.43
-5.38
-4.00
-2.34
-0.49
1.39
3.10
4.48
5.42
5.86
5.85
5.49
4.89
4.17
3.42
2.66
1.88
1.02
0.03
-1.14
-2.46
-3.85
-5.21
-6.43
-7.48
-8.47
-9.56
-10.92
-12.51
-14.14
-15.39
-15.87
-15.40
-14.14
-12.56
-11.31
-10.91
-11.60
-13.24
-15.32
-17.16
-18.08
-17.66
-15.81
-12.84
-9.34
-6.00
-3.39
-1.75
-1.01
-0.87
-0.98
-1.15
-1.36
-1.71
-2.32
-3.19
-4.20
-5.10
-5.63
-5.52
-4.59
-2.79
-0.25
2.71
5.63
8.05
9.70
10.56
10.85
10.82
10.58
9.97
8.70
6.52
3.48
-0.07
-3.56
-6.40
-8.14
-8.51
-7.36
-4.70
-0.77
3.78
7.91
10.44
10.52
8.04
3.76
-0.98
-4.84
-7.08
-7.73
-7.40
-6.87
-6.61
-6.71
-7.01
-7.39
-7.95
-8.93
-10.52
-12.64
-15.00
-17.22
-19.08
-20.58
-21.93
-23.40
-25.09
-26.94
-28.71
-30.20
-31.35
-32.28
-33.25
-34.53
-36.20
-38.18
-40.22
-42.12
-43.86
-45.66
-47.87
-50.75
-54.28
-58.14
-61.77
-64.70
-66.78
-68.23
-69.55
-71.26
-73.67
-76.75
-80.21
-83.46
-85.68
-85.71
-82.17
-73.87
-60.41
-42.68
-22.87
-3.80
12.10
23.68
31.33
36.44
40.32
43.51
45.55
45.56
43.08
38.54
33.21
28.48
25.15
23.10
21.48
19.30
16.04
11.86
7.48
3.74
1.13
-0.33
-0.92
-0.96
-0.50
0.68
2.91
6.37
10.90
16.00
21.02
25.41
28.84
31.26
32.88
33.98
34.87
35.72
36.56
37.29
37.74
37.72
37.19
36.22
34.98
33.63
32.28
30.86
29.29
27.51
25.55
23.59
21.80
20.28
18.98
17.70
16.21
14.41
12.34
10.17
8.05
6.06
4.12
2.17
0.22
-1.52
-2.68
-2.97
-2.28
-0.78
1.14
3.04
4.62
5.74
6.46
6.90
7.18
7.36
7.48
7.56
7.59
7.62
7.65
7.68
7.70
7.71
7.76
7.88
8.09
8.39
8.74
9.06
9.20
9.02
8.39
7.29
5.87
4.33
2.93
1.81
0.97
0.30
-0.38
-1.15
-2.00
-2.82
-3.44
-3.75
-3.64
-3.08
-2.06
-0.65
0.99
2.62
4.01
5.01
5.62
6.01
6.37
6.82
7.35
7.81
8.05
7.99
7.66
7.20
6.75
6.40
6.20
6.18
6.37
6.83
7.59
8.57
9.60
10.43
10.83
10.72
10.17
9.37
8.55
7.89
7.43
7.12
6.84
6.53
6.17
5.82
5.62
5.67
6.07
6.83
7.90
9.10
10.25
11.19
11.86
12.30
12.62
12.86
12.96
12.79
12.24
11.31
10.13
8.93
7.89
7.06
6.35
5.66
4.99
4.46
4.24
4.43
4.95
5.54
5.95
6.08
6.00
6.00
6.30
6.98
7.90
8.77
9.31
9.37
9.05
8.54
8.06
7.73
7.56
7.49
7.46
7.47
7.53
7.67
7.87
8.09
8.29
8.48
8.70
8.97
9.26
9.46
9.41
9.00
8.15
6.90
5.31
3.46
1.40
-0.74
-2.85
-4.71
-6.15
-7.05
-7.43
-7.37
-7.06
-6.61
-6.05
-5.36
-4.53
-3.60
-2.72
-2.01
-1.55
-1.32
-1.19
-1.03
-0.77
-0.42
-0.01
0.48
1.14
2.11
3.46
5.17
7.08
8.94
10.53
11.75
12.58
13.07
13.31
13.34
13.18
12.84
12.31
11.56
10.55
9.20
7.48
5.47
3.31
1.24
-0.48
-1.71
-2.40
-2.64
-2.61
-2.44
-2.23
-2.00
-1.72
-1.37
-0.95
-0.45
0.12
0.79
1.56
2.40
3.20
3.80
4.01
3.71
2.92
1.87
0.89
0.30
0.31
0.88
1.78
2.66
3.18
3.13
2.48
1.35
0.03
-1.21
-2.10
-2.54
-2.56
-2.31
-1.94
-1.53
-1.06
-0.44
0.42
1.51
2.70
3.82
4.71
5.33
5.73
6.04
6.33
6.64
6.90
7.02
6.93
6.61
6.06
5.25
4.09
2.45
0.23
-2.44
-5.28
-7.84
-9.76
-10.89
-11.30
-11.21
-10.80
-10.14
-9.18
-7.91
-6.40
-4.88
-3.59
-2.66
-2.09
-1.76
-1.52
-1.30
-1.18
-1.27
-1.69
-2.44
-3.40
-4.34
-5.00
-5.21
-4.93
-4.28
-3.47
-2.72
-2.13
-1.66
-1.14
-0.42
0.55
1.66
2.66
3.28
3.41
3.07
2.47
1.83
1.31
0.88
0.41
-0.27
-1.21
-2.27
-3.21
-3.76
-3.76
-3.20
-2.20
-0.98
0.25
1.30
2.06
2.55
2.84
3.11
3.48
4.02
4.66
5.28
5.78
6.15
6.43
6.68
6.88
6.93
6.71
6.14
5.29
4.29
3.28
2.32
1.39
0.42
-0.63
-1.73
-2.77
-3.65
-4.35
-4.93
-5.50
-6.11
-6.73
-7.21
-7.38
-7.15
-6.52
-5.67
-4.77
-3.99
-3.38
-2.95
-2.69
-2.58
-2.58
-2.61
-2.52
-2.15
-1.46
-0.54
0.42
1.21
1.75
2.10
2.43
2.87
3.42
3.97
4.39
4.62
4.72
4.81
4.99
5.26
5.53
5.67
5.53
5.04
4.19
3.07
1.89
0.88
0.26
0.10
0.25
0.36
0.09
-0.79
-2.18
-3.79
-5.26
-6.34
-7.01
-7.44
-7.79
-8.15
-8.44
-8.52
-8.28
-7.71
-6.95
-6.16
-5.43
-4.72
-3.92
-2.87
-1.51
0.10
1.78
3.30
4.47
5.21
5.54
5.59
5.53
5.49
5.55
5.70
5.81
5.71
5.20
4.14
2.57
0.64
-1.37
-3.15
-4.50
-5.34
-5.75
-5.87
-5.86
-5.79
-5.62
-5.27
-4.65
-3.72
-2.52
-1.19
0.09
1.20
2.05
2.63
3.02
3.31
3.59
3.90
4.23
4.46
4.45
4.05
3.15
1.75
-0.01
-1.93
-3.79
-5.37
-6.56
-7.28
-7.52
-7.33
-6.84
-6.23
-5.73
-5.54
-5.70
-6.13
-6.63
-6.99
-7.11
-7.01
-6.84
-6.75
-6.82
-7.08
-7.48
-7.96
-8.47
-8.91
-9.11
-8.94
-8.30
-7.25
-6.00
-4.85
-4.04
-3.68
-3.68
-3.78
-3.73
-3.34
-2.51
-1.29
0.16
1.64
2.98
4.07
4.90
5.54
6.12
6.68
7.23
7.68
7.91
7.85
7.47
6.83
6.03
5.19
4.38
3.62
2.85
1.99
0.89
-0.51
-2.20
-4.09
-6.00
-7.73
-9.13
-10.09
-10.54
-10.48
-9.90
-8.87
-7.48
-5.82
-4.01
-2.14
-0.29
1.49
3.14
4.68
6.10
7.39
8.54
9.49
10.21
10.68
10.92
10.97
10.85
10.55
10.04
9.32
8.37
7.19
5.73
4.00
2.04
0.00
-1.90
-3.47
-4.59
-5.32
-5.81
-6.23
-6.67
-7.12
-7.46
-7.59
-7.44
-7.00
-6.32
-5.49
-4.60
-3.76
-3.05
-2.58
-2.43
-2.67
-3.35
-4.43
-5.78
-7.18
-8.38
-9.20
-9.60
-9.69
-9.71
-9.85
-10.23
-10.82
-11.47
-11.99
-12.13
-11.75
-10.73
-9.11
-7.02
-4.72
-2.49
-0.63
0.71
1.52
1.91
2.08
2.18
2.30
2.42
2.52
2.58
2.64
2.76
3.02
3.41
3.86
4.27
4.57
4.74
4.84
4.94
5.04
5.08
4.91
4.40
3.55
2.48
1.44
0.63
0.09
-0.36
-1.10
-2.46
-4.57
-7.25
-10.07
-12.52
-14.19
-14.82
-14.27
-12.43
-9.25
-4.88
0.18
5.00
8.42
9.46
7.73
3.62
-1.80
-7.25
-11.67
-14.55
-15.86
-15.79
-14.45
-11.83
-7.88
-2.77
2.88
8.11
11.92
13.67
13.30
11.35
8.64
5.98
3.84
2.31
1.24
0.43
-0.23
-0.70
-0.97
-1.04
-1.05
-1.19
-1.57
-2.18
-2.84
-3.30
-3.35
-2.93
-2.16
-1.33
-0.77
-0.74
-1.29
-2.28
-3.37
-4.19
-4.43
-3.96
-2.87
-1.44
-0.02
1.10
1.76
1.95
1.84
1.62
1.51
1.66
2.10
2.77
3.54
4.21
4.59
4.55
4.10
3.38
2.64
2.17
2.13
2.54
3.26
4.06
4.66
4.89
4.70
4.17
3.48
2.82
2.36
2.11
2.00
1.85
1.53
0.94
0.11
-0.83
-1.71
-2.36
-2.69
-2.64
-2.26
-1.60
-0.77
0.11
0.94
1.58
1.95
2.01
1.73
1.19
0.47
-0.26
-0.84
-1.12
-1.02
-0.54
0.25
1.21
2.25
3.35
4.57
5.94
7.43
8.87
10.01
10.59
10.54
9.96
9.11
8.27
7.61
7.10
6.61
5.95
5.06
3.96
2.80
1.75
0.96
0.49
0.37
0.54
0.92
1.42
1.90
2.30
2.56
2.74
2.91
3.12
3.37
3.55
3.54
3.28
2.81
2.30
1.90
1.68
1.54
1.33
0.89
0.26
-0.41
-0.90
-1.03
-0.82
-0.38
0.07
0.37
0.40
0.16
-0.33
-1.03
-1.87
-2.81
-3.77
-4.69
-5.51
-6.18
-6.63
-6.80
-6.61
-6.02
-5.05
-3.82
-2.47
-1.16
-0.01
0.90
1.52
1.85
1.91
1.75
1.51
1.30
1.20
1.24
1.36
1.45
1.46
1.43
1.42
1.53
1.80
2.13
2.40
2.45
2.23
1.79
1.29
0.88
0.64
0.52
0.40
0.13
-0.35
-1.06
-1.89
-2.72
-3.42
-3.91
-4.13
-4.06
-3.74
-3.18
-2.42
-1.53
-0.60
0.27
1.01
1.60
2.06
2.47
2.88
3.35
3.84
4.28
4.57
4.68
4.62
4.44
4.22
3.98
3.78
3.62
3.54
3.57
3.67
3.76
3.70
3.39
2.80
2.00
1.18
0.52
0.16
0.09
0.20
0.30
0.23
-0.12
-0.76
-1.62
-2.52
-3.32
-3.88
-4.15
-4.10
-3.80
-3.29
-2.64
-1.90
-1.12
-0.35
0.38
1.07
1.72
2.33
2.88
3.32
3.57
3.60
3.46
3.27
3.16
3.21
3.42
3.69
3.89
3.95
3.88
3.71
3.50
3.27
3.01
2.69
2.32
1.95
1.61
1.36
1.16
0.93
0.59
0.06
-0.65
-1.44
-2.18
-2.74
-3.01
-2.97
-2.64
-2.03
-1.23
-0.30
0.59
1.30
1.69
1.73
1.53
1.30
1.25
1.45
1.84
2.25
2.54
2.66
2.71
2.79
2.93
3.09
3.17
3.09
2.92
2.76
2.69
2.68
2.58
2.25
1.60
0.68
-0.33
-1.24
-1.90
-2.31
-2.55
-2.72
-2.95
-3.27
-3.65
-4.02
-4.24
-4.19
-3.84
-3.24
-2.53
-1.86
-1.34
-0.99
-0.75
-0.54
-0.36
-0.23
-0.21
-0.30
-0.43
-0.47
-0.34
-0.05
0.31
0.60
0.74
0.73
0.64
0.58
0.59
0.67
0.74
0.71
0.55
0.25
-0.10
-0.43
-0.67
-0.84
-1.01
-1.30
-1.78
-2.46
-3.21
-3.82
-4.13
-4.05
-3.67
-3.16
-2.69
-2.32
-2.01
-1.63
-1.08
-0.36
0.46
1.27
1.97
2.52
2.94
3.22
3.35
3.30
3.04
2.62
2.19
1.88
1.85
2.12
2.62
3.24
3.85
4.37
4.76
4.99
5.00
4.75
4.25
3.61
3.01
2.65
2.59
2.74
2.88
2.76
2.28
1.54
0.81
0.40
0.49
1.03
1.76
2.29
2.28
1.59
0.30
-1.39
-3.24
-5.11
-6.99
-8.89
-10.69
-12.15
-12.89
-12.62
-11.35
-9.39
-7.31
-5.66
-4.71
-4.36
-4.25
-3.96
-3.24
-2.12
-0.85
0.29
1.16
1.73
2.07
2.22
2.14
1.79
1.29
0.92
1.08
2.03
3.75
5.93
8.12
9.94
11.24
12.10
12.70
13.13
13.36
13.27
12.79
11.90
10.72
9.33
7.79
6.12
4.34
2.52
0.76
-0.80
-2.06
-2.98
-3.55
-3.81
-3.84
-3.77
-3.72
-3.78
-4.01
-4.44
-5.02
-5.71
-6.46
-7.18
-7.76
-8.11
-8.17
-7.97
-7.64
-7.35
-7.23
-7.31
-7.50
-7.66
-7.64
-7.36
-6.85
-6.18
-5.48
-4.80
-4.14
-3.52
-2.91
-2.36
-1.94
-1.71
-1.67
-1.74
-1.81
-1.79
-1.65
-1.44
-1.22
-1.03
-0.82
-0.57
-0.26
0.05
0.25
0.25
0.04
-0.27
-0.52
-0.56
-0.38
-0.06
0.23
0.35
0.22
-0.15
-0.69
-1.29
-1.84
-2.27
-2.54
-2.63
-2.57
-2.41
-2.21
-2.05
-1.98
-2.03
-2.20
-2.46
-2.75
-3.01
-3.17
-3.21
-3.14
-2.99
-2.79
-2.51
-2.12
-1.57
-0.86
-0.07
0.67
1.21
1.46
1.43
1.21
0.93
0.68
0.47
0.28
-0.00
-0.43
-1.04
-1.78
-2.56
-3.25
-3.74
-3.96
-3.96
-3.84
-3.73
-3.70
-3.73
-3.73
-3.59
-3.26
-2.79
-2.28
-1.77
-1.29
-0.78
-0.23
0.32
0.75
0.95
0.86
0.55
0.23
0.09
0.26
0.74
1.40
2.04
2.48
2.65
2.55
2.29
1.98
1.72
1.53
1.39
1.25
1.09
0.91
0.73
0.56
0.37
0.13
-0.23
-0.75
-1.40
-2.08
-2.66
-2.97
-2.95
-2.59
-1.99
-1.30
-0.65
-0.10
0.33
0.71
1.10
1.54
2.02
2.47
2.77
2.83
2.58
2.06
1.40
0.72
0.17
-0.19
-0.37
-0.40
-0.33
-0.18
0.08
0.44
0.81
1.08
1.10
0.81
0.24
-0.46
-1.14
-1.65
-1.95
-2.10
-2.18
-2.33
-2.61
-3.01
-3.45
-3.81
-3.96
-3.79
-3.28
-2.49
-1.53
-0.56
0.28
0.90
1.26
1.36
1.23
0.92
0.52
0.12
-0.17
-0.28
-0.23
-0.09
0.04
0.06
-0.06
-0.30
-0.60
-0.93
-1.25
-1.60
-2.02
-2.54
-3.16
-3.86
-4.61
-5.36
-6.11
-6.84
-7.56
-8.32
-9.13
-9.99
-10.79
-11.38
-11.53
-11.02
-9.73
-7.67
-4.97
-1.86
1.43
4.66
7.67
10.31
12.45
13.98
14.86
15.11
14.81
14.11
13.19
12.25
11.42
10.79
10.33
9.92
9.39
8.62
7.62
6.52
5.55
4.86
4.52
4.44
4.46
4.42
4.25
3.98
3.72
3.58
3.61
3.77
3.93
3.95
3.74
3.35
2.92
2.68
2.80
3.34
4.20
5.22
6.30
7.48
8.89
10.66
12.78
15.03
17.04
18.41
18.88
18.38
17.07
15.19
12.93
10.41
7.50
3.98
-0.46
-5.95
-12.30
-18.93
-24.93
-29.34
-31.45
-30.98
-28.19
-23.72
-18.38
-12.98
-8.20
-4.54
-2.23
-1.14
-0.82
-0.57
0.20
1.74
3.79
5.64
6.56
6.11
4.40
2.08
0.02
-1.04
-0.71
0.93
3.51
6.45
9.22
11.34
12.55
12.75
12.01
10.61
8.87
7.14
5.65
4.51
3.65
2.88
1.98
0.69
-1.11
-3.47
-6.26
-9.21
-12.01
-14.32
-15.93
-16.80
-17.11
-17.15
-17.26
-17.69
-18.44
-19.33
-20.06
-20.34
-20.01
-19.13
-17.87
-16.43
-14.96
-13.54
-12.15
-10.79
-9.42
-8.06
-6.77
-5.58
-4.55
-3.71
-3.06
-2.53
-2.02
-1.43
-0.68
0.27
1.37
2.55
3.68
4.64
5.31
5.58
5.45
5.00
4.37
3.73
3.18
2.68
2.12
1.38
0.44
-0.60
-1.55
-2.23
-2.51
-2.39
-1.89
-1.05
0.09
1.49
3.03
4.53
5.79
6.71
7.29
7.67
8.02
8.46
8.96
9.38
9.57
9.44
9.03
8.47
7.92
7.43
6.96
6.42
5.78
5.08
4.40
3.82
3.29
2.69
1.87
0.77
-0.56
-2.00
-3.40
-4.69
-5.86
-6.88
-7.68
-8.12
-8.07
-7.50
-6.48
-5.15
-3.71
-2.34
-1.15
-0.22
0.42
0.80
1.01
1.20
1.48
1.87
2.27
2.51
2.41
1.94
1.22
0.51
0.08
0.16
0.88
2.26
4.19
6.50
8.89
11.09
12.85
14.06
14.76
15.08
15.16
15.08
14.89
14.61
14.36
14.28
14.55
15.29
16.48
18.01
19.73
21.48
23.18
24.77
26.25
27.61
28.89
30.07
31.18
32.21
33.13
33.91
34.52
34.97
35.33
35.68
36.10
36.62
37.18
37.61
37.68
37.17
35.97
34.13
31.78
29.15
26.39
23.57
20.67
17.69
14.70
11.86
9.33
7.26
5.67
4.50
3.61
2.88
2.17
1.31
0.08
-1.79
-4.50
-8.15
-12.67
-17.84
-23.32
-28.79
-33.88
-38.31
-41.86
-44.44
-46.12
-47.13
-47.76
-48.23
-48.66
-49.00
-49.16
-49.07
-48.74
-48.23
-47.59
-46.79
-45.78
-44.54
-43.11
-41.62
-40.20
-38.89
-37.66
-36.46
-35.28
-34.20
-33.34
-32.75
-32.33
-31.90
-31.26
-30.30
-29.05
-27.64
-26.13
-24.54
-22.79
-20.80
-18.58
-16.26
-14.00
-11.97
-10.20
-8.64
-7.16
-5.65
-4.11
-2.60
-1.27
-0.21
0.54
1.01
1.31
1.49
1.61
1.70
1.75
1.76
1.70
1.53
1.19
0.64
-0.12
-1.01
-1.92
-2.70
-3.24
-3.53
-3.57
-3.41
-3.02
-2.36
-1.38
-0.07
1.51
3.27
5.09
6.89
8.65
10.38
12.06
13.66
15.09
16.28
17.22
17.94
18.55
19.18
19.94
20.90
22.05
23.32
24.61
25.86
27.02
28.16
29.34
30.60
31.91
33.11
33.94
34.11
33.43
31.84
29.49
26.70
23.87
21.36
19.41
18.03
17.06
16.26
15.42
14.40
13.18
11.77
10.19
8.38
6.32
4.03
1.67
-0.55
-2.40
-3.81
-4.87
-5.82
-6.93
-8.39
-10.24
-12.36
-14.55
-16.61
-18.41
-19.95
-21.31
-22.61
-23.96
-25.35
-26.59
-27.38
-27.42
-26.49
-24.64
-22.11
-19.30
-16.54
-14.02
-11.72
-9.52
-7.29
-4.99
-2.66
-0.35
1.90
4.16
6.48
8.89
11.32
13.59
15.45
16.67
17.17
17.02
16.44
15.76
15.28
15.13
15.28
15.54
15.67
15.43
14.73
13.60
12.17
10.61
9.08
7.68
6.45
5.34
4.27
3.09
1.68
-0.06
-2.08
-4.21
-6.20
-7.76
-8.67
-8.87
-8.47
-7.72
-6.90
-6.24
-5.87
-5.80
-5.97
-6.30
-6.70
-7.10
-7.41
-7.61
-7.70
-7.72
-7.81
-8.05
-8.50
-9.11
-9.78
-10.33
-10.65
-10.71
-10.59
-10.41
-10.31
-10.36
-10.56
-10.84
-11.09
-11.25
-11.32
-11.32
-11.28
-11.19
-11.00
-10.59
-9.90
-8.88
-7.54
-5.93
-4.15
-2.28
-0.41
1.34
2.84
3.99
4.73
5.09
5.17
5.11
5.02
4.95
4.86
4.72
4.53
4.31
4.10
3.92
3.71
3.46
3.15
2.87
2.68
2.59
2.50
2.26
1.74
0.93
-0.05
-1.01
-1.83
-2.52
-3.19
-3.93
-4.70
-5.31
-5.50
-5.11
-4.19
-2.95
-1.70
-0.67
0.05
0.51
0.84
1.10
1.33
1.47
1.49
1.37
1.12
0.75
0.27
-0.31
-0.95
-1.54
-1.96
-2.14
-2.05
-1.79
-1.52
-1.39
-1.51
-1.88
-2.43
-3.04
-3.59
-4.04
-4.39
-4.71
-5.11
-5.59
-6.11
-6.51
-6.62
-6.33
-5.62
-4.57
-3.32
-1.98
-0.57
0.87
2.33
3.71
4.92
5.84
6.42
6.69
6.70
6.51
6.22
5.90
5.66
5.59
5.74
6.09
6.51
6.84
6.96
6.84
6.57
6.33
6.25
6.42
6.75
7.07
7.14
6.81
6.08
5.08
4.02
3.11
2.44
1.99
1.69
1.46
1.35
1.46
1.89
2.67
3.70
4.78
5.69
6.27
6.45
6.25
5.75
5.04
4.21
3.37
2.58
1.91
1.35
0.87
0.36
-0.25
-0.95
-1.64
-2.13
-2.30
-2.13
-1.78
-1.52
-1.55
-1.95
-2.58
-3.24
-3.72
-3.98
-4.13
-4.33
-4.68
-5.18
-5.74
-6.25
-6.69
-7.04
-7.32
-7.50
-7.49
-7.21
-6.57
-5.58
-4.29
-2.82
-1.36
-0.08
0.84
1.30
1.33
1.06
0.72
0.51
0.54
0.80
1.16
1.49
1.67
1.66
1.49
1.21
0.90
0.64
0.47
0.40
0.37
0.31
0.15
-0.18
-0.69
-1.36
-2.12
-2.93
-3.71
-4.41
-5.00
-5.46
-5.81
-6.05
-6.13
-6.01
-5.58
-4.83
-3.79
-2.60
-1.42
-0.41
0.41
1.09
1.71
2.31
2.86
3.26
3.43
3.35
3.08
2.73
2.38
2.07
1.80
1.57
1.40
1.33
1.37
1.49
1.61
1.62
1.45
1.07
0.51
-0.15
-0.86
-1.56
-2.25
-2.93
-3.62
-4.30
-4.96
-5.59
-6.17
-6.67
-7.03
-7.16
-6.96
-6.36
-5.37
-4.08
-2.63
-1.17
0.18
1.32
2.19
2.75
3.02
3.06
3.00
3.00
3.13
3.41
3.74
4.02
4.15
4.15
4.06
3.95
3.86
3.77
3.63
3.39
3.03
2.57
2.05
1.52
1.02
0.57
0.15
-0.27
-0.75
-1.32
-2.02
-2.83
-3.72
-4.59
-5.32
-5.77
-5.83
-5.43
-4.59
-3.40
-2.02
-0.61
0.68
1.76
2.61
3.25
3.71
4.02
4.14
4.05
3.78
3.42
3.10
2.95
2.98
3.13
3.27
3.28
3.15
2.95
2.80
2.77
2.85
2.94
2.91
2.68
2.27
1.73
1.14
0.54
-0.11
-0.82
-1.59
-2.41
-3.24
-4.07
-4.86
-5.58
-6.14
-6.41
-6.28
-5.72
-4.79
-3.65
-2.47
-1.40
-0.50
0.21
0.75
1.12
1.35
1.45
1.50
1.54
1.62
1.75
1.89
1.98
1.99
1.92
1.84
1.84
2.00
2.30
2.66
2.93
2.97
2.72
2.23
1.66
1.19
0.93
0.85
0.83
0.68
0.23
-0.54
-1.55
-2.62
-3.55
-4.16
-4.35
-4.14
-3.60
-2.86
-2.02
-1.15
-0.27
0.60
1.47
2.31
3.03
3.57
3.88
3.95
3.84
3.66
3.52
3.53
3.70
3.98
4.32
4.61
4.84
5.00
5.10
5.16
5.14
4.98
4.65
4.12
3.41
2.60
1.76
0.94
0.18
-0.48
-1.03
-1.49
-1.92
-2.40
-3.05
-3.90
-4.88
-5.83
-6.54
-6.80
-6.52
-5.74
-4.61
-3.38
-2.21
-1.23
-0.45
0.19
0.71
1.12
1.36
1.43
1.34
1.15
0.96
0.82
0.76
0.77
0.82
0.90
1.03
1.24
1.52
1.80
1.99
2.00
1.78
1.35
0.77
0.13
-0.48
-1.02
-1.48
-1.87
-2.24
-2.64
-3.12
-3.77
-4.61
-5.60
-6.61
-7.40
-7.74
-7.48
-6.62
-5.31
-3.82
-2.38
-1.14
-0.11
0.79
1.64
2.50
3.31
3.99
4.43
4.58
4.44
4.05
3.52
2.94
2.40
1.99
1.79
1.85
2.21
2.84
3.64
4.46
5.12
5.48
5.46
5.11
4.54
3.86
3.19
2.55
1.94
1.32
0.63
-0.18
-1.15
-2.30
-3.59
-4.89
-5.97
-6.56
-6.48
-5.66
-4.24
-2.48
-0.69
0.86
2.05
2.84
3.28
3.45
3.45
3.40
3.39
3.52
3.79
4.08
4.26
4.19
3.83
3.25
2.65
2.19
1.98
2.03
2.24
2.49
2.65
2.66
2.52
2.21
1.77
1.20
0.53
-0.21
-0.99
-1.79
-2.60
-3.41
-4.20
-4.89
-5.38
-5.55
-5.33
-4.73
-3.84
-2.80
-1.72
-0.68
0.29
1.20
2.03
2.72
3.23
3.55
3.69
3.69
3.64
3.58
3.59
3.65
3.77
3.89
4.02
4.14
4.28
4.39
4.41
4.23
3.79
3.13
2.37
1.70
1.25
1.05
0.96
0.80
0.39
-0.32
-1.26
-2.28
-3.18
-3.77
-3.87
-3.38
-2.30
-0.74
1.06
2.80
4.24
5.20
5.68
5.80
5.75
5.72
5.81
6.07
6.47
6.93
7.41
7.81
8.11
8.25
8.21
8.03
7.76
7.50
7.36
7.38
7.53
7.67
7.67
7.41
6.83
6.01
5.00
3.90
2.70
1.38
-0.10
-1.72
-3.38
-4.90
-6.08
-6.80
-7.01
-6.76
-6.17
-5.35
-4.38
-3.32
-2.19
-1.08
-0.10
0.59
0.86
0.64
0.00
-0.89
-1.80
-2.55
-3.00
-3.12
-2.97
-2.65
-2.25
-1.88
-1.60
-1.47
-1.46
-1.55
-1.64
-1.69
-1.68
-1.71
-1.88
-2.26
-2.88
-3.64
-4.44
-5.20
-5.87
-6.46
-6.96
-7.30
-7.37
-7.05
-6.32
-5.26
-3.98
-2.66
-1.39
-0.23
0.83
1.78
2.59
3.21
3.61
3.77
3.74
3.58
3.37
3.19
3.08
3.04
3.07
3.11
3.10
3.00
2.77
2.43
2.03
1.63
1.32
1.14
1.10
1.11
1.10
0.97
0.70
0.29
-0.18
-0.67
-1.14
-1.56
-1.95
-2.29
-2.53
-2.64
-2.58
-2.36
-2.00
-1.50
-0.86
-0.00
1.10
2.43
3.86
5.21
6.25
6.84
7.02
6.97
7.00
7.37
8.13
9.07
9.78
9.91
9.34
8.37
7.58
7.60
8.78
10.97
13.59
15.87
17.28
17.73
17.65
17.75
18.71
20.96
24.53
29.10
33.98
38.18
40.36
39.17
33.60
23.59
10.28
-4.13
-17.09
-26.68
-32.21
-34.29
-34.27
-33.36
-32.09
-30.33
-27.68
-24.08
-20.12
-16.86
-15.44
-16.52
-20.04
-25.20
-30.77
-35.50
-38.50
-39.56
-39.12
-38.03
-37.05
-36.50
-36.13
-35.26
-33.31
-30.13
-26.08
-21.84
-17.98
-14.66
-11.67
-8.63
-5.32
-1.86
1.32
3.79
5.32
6.04
6.41
7.03
8.40
10.72
13.84
17.29
20.46
22.80
24.02
24.12
23.35
22.04
20.48
18.79
16.95
14.89
12.61
10.25
8.03
6.18
4.89
4.18
3.93
3.91
3.86
3.59
3.07
2.35
1.58
0.89
0.32
-0.12
-0.49
-0.81
-1.09
-1.32
-1.48
-1.53
-1.41
-1.05
-0.42
0.42
1.30
1.96
2.15
1.77
0.92
-0.15
-1.18
-1.94
-2.35
-2.45
-2.34
-2.18
-2.11
-2.29
-2.77
-3.50
-4.29
-4.91
-5.13
-4.88
-4.25
-3.44
-2.63
-1.93
-1.38
-0.96
-0.71
-0.71
-1.05
-1.76
-2.81
-4.06
-5.35
-6.52
-7.44
-8.01
-8.15
-7.79
-6.90
-5.50
-3.67
-1.62
0.42
2.17
3.46
4.22
4.52
4.50
4.35
4.21
4.16
4.23
4.42
4.71
5.08
5.52
6.03
6.63
7.38
8.31
9.41
10.56
11.55
12.07
11.83
10.65
8.62
6.07
3.50
1.45
0.25
-0.05
0.33
0.97
1.48
1.62
1.34
0.71
-0.11
-1.04
-2.01
-2.96
-3.80
-4.42
-4.72
-4.70
-4.49
-4.31
-4.38
-4.83
-5.61
-6.50
-7.20
-7.52
-7.39
-6.95
-6.41
-5.96
-5.69
-5.51
-5.24
-4.70
-3.83
-2.67
-1.42
-0.33
0.43
0.79
0.86
0.86
1.05
1.58
2.44
3.44
4.30
4.77
4.74
4.30
3.66
3.09
2.77
2.77
3.01
3.34
3.62
3.75
3.72
3.62
3.56
3.63
3.94
4.52
5.39
6.54
7.93
9.50
11.14
12.70
14.05
15.18
16.21
17.37
18.90
20.94
23.42
26.12
28.71
30.92
32.62
33.85
34.83
35.87
37.32
39.45
42.20
45.05
46.96
46.69
43.24
36.42
26.96
16.24
5.70
-3.73
-11.92
-19.32
-26.55
-34.04
-41.83
-49.67
-57.16
-63.87
-69.24
-72.67
-73.59
-71.74
-67.33
-61.06
-53.91
-46.78
-40.30
-34.73
-30.15
-26.52
-23.81
-21.92
-20.61
-19.51
-18.20
-16.35
-13.90
-11.08
-8.30
-5.97
-4.32
-3.30
-2.67
-2.12
-1.44
-0.62
0.22
0.93
1.40
1.67
1.86
2.10
2.43
2.80
3.05
3.06
2.80
2.38
1.94
1.62
1.45
1.39
1.31
1.16
0.95
0.80
0.83
1.12
1.67
2.41
3.24
4.04
4.69
5.09
5.12
4.74
3.98
3.01
2.04
1.26
0.74
0.36
-0.05
-0.64
-1.40
-2.15
-2.64
-2.62
-2.01
-0.86
0.69
2.45
4.26
5.93
7.32
8.29
8.79
8.87
8.70
8.44
8.18
7.96
7.73
7.49
7.29
7.25
7.46
7.92
8.52
9.05
9.34
9.30
8.94
8.40
7.79
7.24
6.81
6.53
6.38
6.36
6.42
6.48
6.46
6.31
6.00
5.63
5.39
5.48
6.08
7.21
8.75
10.48
12.19
13.78
15.27
16.75
18.24
19.66
20.81
21.51
21.70
21.53
21.31
21.39
21.98
23.13
24.60
26.07
27.11
27.39
26.69
25.01
22.57
19.76
17.09
15.02
13.85
13.64
14.17
15.10
16.08
16.82
17.24
17.38
17.48
17.78
18.44
19.39
20.25
20.45
19.46
17.00
13.27
8.88
4.64
1.21
-1.12
-2.47
-3.29
-4.00
-4.89
-5.97
-7.16
-8.38
-9.64
-11.05
-12.66
-14.38
-15.90
-16.87
-17.06
-16.50
-15.51
-14.51
-13.85
-13.69
-13.98
-14.60
-15.47
-16.62
-18.05
-19.71
-21.38
-22.81
-23.79
-24.24
-24.22
-23.83
-23.11
-22.03
-20.51
-18.57
-16.39
-14.28
-12.57
-11.41
-10.77
-10.40
-10.00
-9.37
-8.54
-7.71
-7.15
-7.05
-7.46
-8.26
-9.28
-10.35
-11.40
-12.47
-13.63
-14.93
-16.35
-17.79
-19.07
-20.02
-20.52
-20.59
-20.32
-19.88
-19.44
-19.07
-18.74
-18.34
-17.78
-16.98
-15.95
-14.74
-13.42
-12.03
-10.65
-9.34
-8.18
-7.23
-6.54
-6.12
-5.94
-5.94
-6.05
-6.15
-6.16
-6.03
-5.78
-5.48
-5.24
-5.13
-5.15
-5.28
-5.48
-5.74
-6.10
-6.52
-6.91
-7.10
-6.97
-6.55
-6.00
-5.56
-5.40
-5.52
-5.77
-5.95
-5.90
-5.59
-5.11
-4.54
-3.93
-3.25
-2.44
-1.47
-0.37
0.73
1.69
2.35
2.68
2.72
2.67
2.75
3.11
3.78
4.62
5.41
5.98
6.25
6.29
6.23
6.17
6.18
6.22
6.25
6.20
6.04
5.77
5.42
5.07
4.73
4.40
3.99
3.40
2.58
1.62
0.71
0.09
-0.06
0.29
1.02
1.94
2.88
3.75
4.54
5.23
5.83
6.30
6.60
6.73
6.74
6.68
6.63
6.59
6.59
6.58
6.55
6.45
6.30
6.16
6.09
6.16
6.34
6.57
6.69
6.63
6.36
5.94
5.43
4.90
4.34
3.71
3.00
2.28
1.67
1.34
1.38
1.81
2.55
3.52
4.58
5.67
6.76
7.88
9.07
10.36
11.73
13.05
14.17
15.00
15.58
16.12
16.92
18.18
19.96
22.07
24.18
25.98
27.30
28.20
28.94
29.93
31.49
33.75
36.57
39.58
42.33
44.52
46.09
47.31
48.64
50.55
53.36
57.09
61.34
65.19
67.20
65.60
58.90
46.43
28.84
8.01
-13.44
-33.10
-49.43
-62.05
-71.49
-78.66
-84.38
-89.16
-93.21
-96.62
-99.42
-101.52
-102.69
-102.55
-100.69
-96.78
-90.73
-82.74
-73.29
-63.11
-52.96
-43.54
-35.27
-28.24
-22.29
-17.11
-12.47
-8.28
-4.60
-1.55
0.82
2.55
3.81
4.75
5.54
6.22
6.78
7.18
7.33
7.21
6.86
6.41
6.01
5.86
6.08
6.73
7.72
8.87
9.97
10.82
11.29
11.33
10.94
10.19
9.17
8.04
6.97
6.14
5.67
5.58
5.78
6.12
6.41
6.49
6.30
5.84
5.26
4.73
4.45
4.55
5.05
5.89
6.87
7.79
8.50
8.92
9.09
9.12
9.19
9.44
9.99
10.84
11.87
12.90
13.75
14.31
14.60
14.78
15.07
15.76
17.09
19.18
21.97
25.15
28.11
30.16
30.69
29.41
26.46
22.28
17.43
12.34
7.22
2.13
-2.91
-7.77
-12.18
-15.88
-18.68
-20.57
-21.68
-22.15
-22.09
-21.56
-20.62
-19.42
-18.16
-17.08
-16.33
-15.91
-15.69
-15.46
-15.03
-14.34
-13.41
-12.34
-11.21
-10.06
-8.89
-7.68
-6.45
-5.22
-4.05
-2.97
-2.07
-1.42
-1.08
-1.04
-1.17
-1.24
-1.01
-0.33
0.83
2.32
3.92
5.43
6.76
7.85
8.71
9.36
9.82
10.09
10.24
10.37
10.54
10.77
11.01
11.12
11.03
10.68
10.10
9.41
8.72
8.08
7.49
6.88
6.15
5.23
4.11
2.82
1.38
-0.17
-1.78
-3.40
-4.93
-6.23
-7.23
-7.91
-8.35
-8.70
-9.08
-9.52
-9.88
-10.00
-9.74
-9.11
-8.20
-7.15
-6.02
-4.76
-3.26
-1.47
0.50
2.39
3.89
4.85
5.34
5.56
5.75
6.03
6.38
6.73
6.98
7.16
7.34
7.62
7.99
8.34
8.55
8.61
8.56
8.49
8.45
8.60
9.13
10.10
11.26
12.00
11.57
8.98
3.36
-5.66
-17.47
-30.47
-42.58
-51.73
-56.33
-55.22
-48.62
-37.93
-25.52
-13.54
-3.27
4.95
11.61
17.73
25.01
34.43
46.22
59.74
74.22
88.61
100.96
108.74
109.66
103.68
91.93
76.38
58.17
37.51
16.19
-3.17
-17.45
-29.75
-39.78
-47.09
-48.51
-44.66
-37.95
-31.11
-26.28
-24.13
-24.00
-23.40
-20.34
-13.76
-4.18
7.35
19.77
31.88
42.67
51.29
57.72
61.47
61.68
57.09
47.28
33.00
15.89
-1.96
-18.73
-32.90
-44.14
-52.99
-60.48
-67.11
-72.63
-76.26
-77.25
-75.31
-70.71
-64.41
-57.59
-51.30
-45.92
-41.29
-37.07
-33.10
-29.51
-26.58
-24.58
-23.56
-23.30
-23.39
-23.34
-22.82
-21.71
-20.06
-18.01
-15.69
-13.18
-10.50
-7.66
-4.67
-1.61
1.39
4.09
6.30
7.88
8.92
9.67
10.54
11.95
14.18
17.22
20.72
24.13
26.77
28.12
27.87
26.06
22.96
19.00
14.63
10.22
6.07
2.35
-0.87
-3.62
-5.97
-8.03
-9.87
-11.55
-13.11
-14.63
-16.18
-17.88
-19.78
-21.90
-24.16
-26.46
-28.60
-30.34
-31.32
-31.15
-29.53
-26.41
-22.11
-17.25
-12.55
-8.61
-5.67
-3.63
-2.12
-0.65
1.28
4.09
8.07
13.23
19.23
25.38
30.79
34.67
36.63
36.75
35.47
33.36
30.86
28.19
25.42
22.60
19.89
17.51
15.60
14.12
12.76
11.08
8.66
5.26
0.95
-3.96
-8.93
-13.37
-16.76
-18.66
-18.79
-17.08
-13.68
-8.95
-3.47
2.09
7.11
11.12
13.93
15.61
16.46
16.93
17.61
19.00
21.43
24.87
28.83
32.50
34.91
35.24
33.06
28.42
21.74
13.55
4.33
-5.58
-15.90
-26.27
-36.12
-44.76
-51.62
-56.47
-59.59
-61.65
-63.36
-65.11
-66.78
-67.71
-66.99
-63.81
-57.70
-48.58
-36.77
-22.82
-7.55
7.99
22.61
35.13
44.66
50.79
53.66
53.85
52.18
49.51
46.58
43.92
41.73
39.98
38.32
36.28
33.40
29.40
24.35
18.64
12.89
7.77
3.73
0.91
-0.98
-2.57
-4.60
-7.73
-12.28
-18.15
-24.85
-31.71
-38.06
-43.46
-47.78
-51.15
-53.81
-55.95
-57.59
-58.55
-58.49
-57.07
-54.14
-49.82
-44.58
-39.04
-33.84
-29.33
-25.47
-21.85
-17.95
-13.45
-8.47
-3.59
0.51
3.35
5.02
6.16
7.77
10.68
15.36
21.65
29.02
36.70
44.05
50.80
57.18
63.91
72.04
82.53
95.77
111.14
126.86
140.26
148.39
148.74
140.07
122.84
99.30
73.06
48.26
28.39
15.10
7.73
3.56
-0.90
-8.32
-19.40
-32.72
-45.68
-55.88
-62.21
-65.05
-65.60
-64.96
-63.53
-61.14
-57.53
-52.92
-48.13
-44.16
-41.65
-40.45
-39.74
-38.42
-35.73
-31.55
-26.49
-21.51
-17.48
-14.78
-13.15
-11.91
-10.23
-7.59
-3.93
0.28
4.32
7.53
9.50
10.25
10.06
9.36
8.56
7.90
7.50
7.38
7.51
7.84
8.30
8.85
9.45
10.02
10.33
9.93
8.25
4.78
-0.64
-7.57
-14.93
-21.22
-24.97
-25.20
-21.70
-15.00
-6.18
3.54
13.05
21.46
28.14
32.68
34.95
35.11
33.63
31.11
28.12
25.04
21.95
18.81
15.64
12.68
10.35
9.05
8.91
9.61
10.54
11.05
10.75
9.67
8.21
6.89
6.12
6.00
6.41
7.13
8.00
9.04
10.36
12.06
14.09
16.24
18.17
19.57
20.28
20.37
20.07
19.72
19.58
19.73
20.05
20.24
19.99
19.07
17.37
14.92
11.79
8.06
3.86
-0.56
-4.71
-7.95
-9.70
-9.68
-8.15
-5.86
-3.77
-2.70
-2.98
-4.37
-6.27
-8.09
-9.47
-10.43
-11.20
-12.03
-13.01
-14.00
-14.75
-15.03
-14.80
-14.21
-13.46
-12.69
-11.88
-10.83
-9.33
-7.29
-4.86
-2.42
-0.45
0.62
0.59
-0.47
-2.26
-4.38
-6.46
-8.18
-9.40
-10.09
-10.37
-10.42
-10.41
-10.39
-10.35
-10.24
-10.06
-9.93
-10.00
-10.37
-10.96
-11.48
-11.58
-11.00
-9.73
-8.01
-6.18
-4.55
-3.20
-2.02
-0.79
0.64
2.26
3.86
5.21
6.15
6.73
7.14
7.61
8.26
8.99
9.54
9.65
9.20
8.22
6.92
5.50
4.09
2.75
1.49
0.44
-0.25
-0.40
0.06
1.04
2.30
3.52
4.43
4.84
4.62
3.68
1.98
-0.46
-3.47
-6.76
-9.96
-12.70
-14.72
-15.91
-16.25
-15.78
-14.58
-12.75
-10.52
-8.21
-6.19
-4.77
-4.04
-3.88
-3.98
-3.99
-3.74
-3.23
-2.61
-2.02
-1.47
-0.85
-0.03
1.06
2.29
3.41
4.16
4.40
4.18
3.68
3.11
2.59
2.13
1.66
1.13
0.51
-0.15
-0.80
-1.41
-1.97
-2.44
-2.74
-2.73
-2.28
-1.27
0.24
2.11
4.11
6.04
7.79
9.37
10.88
12.40
13.99
15.62
17.24
18.76
20.10
21.20
22.02
22.47
22.48
21.99
20.94
19.31
17.13
14.46
11.43
8.20
4.99
1.98
-0.70
-2.99
-4.93
-6.59
-8.07
-9.43
-10.71
-11.95
-13.21
-14.54
-15.99
-17.53
-19.01
-20.19
-20.75
-20.46
-19.23
-17.22
-14.75
-12.24
-10.07
-8.42
-7.29
-6.55
-6.01
-5.57
-5.17
-4.81
-4.48
-4.11
-3.60
-2.89
-2.02
-1.11
-0.38
-0.02
-0.11
-0.62
-1.36
-2.07
-2.51
-2.57
-2.30
-1.90
-1.64
-1.66
-1.95
-2.38
-2.77
-3.08
-3.42
-4.00
-4.94
-6.14
-7.22
-7.74
-7.31
-5.81
-3.44
-0.63
2.20
4.73
6.88
8.70
10.31
11.76
12.98
13.83
14.17
13.95
13.25
12.23
11.08
9.91
8.78
7.75
6.91
6.40
6.34
6.68
7.21
7.60
7.54
6.86
5.62
4.02
2.28
0.54
-1.14
-2.77
-4.33
-5.78
-7.07
-8.16
-9.07
-9.80
-10.31
-10.52
-10.35
-9.77
-8.86
-7.74
-6.55
-5.37
-4.27
-3.33
-2.65
-2.32
-2.35
-2.62
-2.92
-3.01
-2.78
-2.32
-1.78
-1.36
-1.07
-0.85
-0.52
-0.02
0.55
1.00
1.18
1.09
0.95
1.07
1.64
2.58
3.58
4.19
4.07
3.19
1.76
0.16
-1.33
-2.62
-3.78
-4.95
-6.12
-7.14
-7.73
-7.66
-6.92
-5.73
-4.50
-3.59
-3.19
-3.23
-3.46
-3.61
-3.53
-3.30
-3.16
-3.35
-3.98
-4.95
-6.01
-6.90
-7.47
-7.78
-7.99
-8.25
-8.60
-8.90
-8.96
-8.63
-7.89
-6.86
-5.61
-4.20
-2.62
-0.87
0.95
2.59
3.82
4.49
4.66
4.49
4.21
3.89
3.47
2.82
1.88
0.72
-0.42
-1.26
-1.63
-1.47
-0.86
0.09
1.28
2.64
4.07
5.44
6.54
7.17
7.21
6.71
5.88
4.98
4.20
3.64
3.24
2.92
2.64
2.42
2.33
2.40
2.59
2.77
2.79
2.52
1.88
0.87
-0.51
-2.24
-4.27
-6.49
-8.74
-10.83
-12.54
-13.70
-14.24
-14.16
-13.55
-12.55
-11.29
-9.87
-8.33
-6.65
-4.83
-2.93
-1.07
0.59
1.90
2.87
3.61
4.31
5.11
6.05
7.05
7.99
8.76
9.32
9.74
10.08
10.42
10.77
11.09
11.30
11.34
11.17
10.77
10.18
9.46
8.69
7.94
7.20
6.38
5.33
3.96
2.23
0.28
-1.69
-3.43
-4.77
-5.67
-6.23
-6.60
-6.93
-7.34
-7.83
-8.42
-9.06
-9.70
-10.24
-10.51
-10.31
-9.48
-8.01
-6.05
-3.84
-1.68
0.23
1.80
3.02
3.96
4.65
5.11
5.37
5.46
5.46
5.43
5.40
5.33
5.12
4.72
4.12
3.40
2.68
2.12
1.79
1.69
1.70
1.69
1.53
1.16
0.61
-0.01
-0.61
-1.14
-1.61
-2.07
-2.59
-3.24
-4.03
-5.00
-6.13
-7.39
-8.68
-9.83
-10.63
-10.90
-10.57
-9.70
-8.45
-7.03
-5.56
-4.10
-2.62
-1.09
0.49
2.03
3.41
4.51
5.23
5.61
5.72
5.68
5.62
5.58
5.58
5.60
5.60
5.59
5.55
5.45
5.24
4.86
4.28
3.54
2.74
1.98
1.30
0.66
-0.01
-0.75
-1.54
-2.30
-2.95
-3.46
-3.92
-4.45
-5.15
-6.00
-6.86
-7.48
-7.65
-7.22
-6.23
-4.85
-3.31
-1.81
-0.48
0.67
1.66
2.54
3.33
4.01
4.51
4.82
4.91
4.85
4.70
4.54
4.43
4.39
4.44
4.58
4.81
5.04
5.18
5.09
4.70
4.03
3.21
2.43
1.85
1.49
1.24
0.94
0.42
-0.36
-1.39
-2.57
-3.81
-5.02
-6.09
-6.89
-7.26
-7.09
-6.36
-5.11
-3.51
-1.73
0.04
1.67
3.10
4.32
5.37
6.26
6.98
7.47
7.67
7.53
7.14
6.61
6.12
5.75
5.53
5.40
5.28
5.10
4.82
4.45
4.01
3.54
3.11
2.74
2.42
2.10
1.71
1.23
0.67
0.15
-0.21
-0.33
-0.21
0.05
0.36
0.64
0.92
1.30
1.95
3.01
4.53
6.50
8.76
11.07
13.19
14.89
16.04
16.62
16.75
16.66
16.65
17.00
17.89
19.30
20.97
22.37
22.93
22.13
19.77
16.06
11.54
6.91
2.81
-0.39
-2.66
-4.22
-5.35
-6.27
-7.04
-7.60
-7.86
-7.85
-7.69
-7.60
-7.81
-8.48
-9.62
-11.12
-12.74
-14.16
-15.08
-15.29
-14.75
-13.62
-12.18
-10.73
-9.47
-8.45
-7.57
-6.69
-5.70
-4.61
-3.49
-2.49
-1.71
-1.15
-0.76
-0.43
-0.07
0.40
1.04
1.84
2.80
3.91
5.09
6.21
7.07
7.46
7.29
6.62
5.66
4.68
3.88
3.23
2.61
1.85
0.92
-0.04
-0.77
-1.07
-0.90
-0.50
-0.23
-0.49
-1.47
-3.16
-5.31
-7.59
-9.62
-11.15
-11.98
-12.05
-11.37
-10.05
-8.29
-6.32
-4.37
-2.59
-1.11
0.02
0.76
1.07
0.97
0.57
0.08
-0.25
-0.20
0.27
1.07
1.96
2.70
3.09
3.11
2.82
2.35
1.86
1.47
1.21
1.06
0.91
0.68
0.27
-0.31
-1.00
-1.71
-2.36
-2.90
-3.33
-3.66
-3.97
-4.33
-4.81
-5.47
-6.26
-7.13
-7.95
-8.61
-9.07
-9.29
-9.28
-9.03
-8.55
-7.87
-7.06
-6.27
-5.59
-5.08
-4.70
-4.37
-3.97
-3.42
-2.73
-1.93
-1.06
-0.17
0.69
1.47
2.09
2.48
2.61
2.48
2.16
1.70
1.11
0.38
-0.49
-1.45
-2.34
-2.98
-3.21
-2.97
-2.35
-1.56
-0.87
-0.50
-0.58
-1.11
-1.99
-3.04
-4.10
-4.96
-5.43
-5.36
-4.71
-3.56
-2.09
-0.53
0.95
2.23
3.33
4.27
5.09
5.73
6.10
6.11
5.76
5.09
4.24
3.37
2.65
2.21
2.11
2.38
2.93
3.61
4.24
4.66
4.83
4.76
4.50
4.14
3.68
3.08
2.32
1.41
0.42
-0.55
-1.38
-2.02
-2.48
-2.82
-3.07
-3.28
-3.44
-3.58
-3.71
-3.87
-4.05
-4.23
-4.33
-4.21
-3.77
-2.95
-1.77
-0.38
1.01
2.17
2.96
3.35
3.48
3.53
3.66
3.96
4.32
4.58
4.59
4.30
3.76
3.16
2.65
2.32
2.14
1.99
1.78
1.50
1.21
1.02
0.97
1.03
1.06
0.96
0.64
0.12
-0.57
-1.40
-2.38
-3.50
-4.71
-5.89
-6.88
-7.54
-7.78
-7.57
-6.95
-5.97
-4.71
-3.29
-1.89
-0.64
0.35
1.09
1.65
2.14
2.56
2.86
2.98
2.84
2.46
1.95
1.41
0.92
0.49
0.07
-0.36
-0.78
-1.15
-1.43
-1.62
-1.74
-1.86
-2.02
-2.24
-2.49
-2.77
-3.07
-3.37
-3.66
-3.94
-4.23
-4.54
-4.89
-5.25
-5.53
-5.64
-5.47
-4.99
-4.24
-3.33
-2.38
-1.48
-0.67
0.08
0.80
1.54
2.32
3.19
4.12
5.11
6.08
6.99
7.80
8.54
9.25
9.99
10.76
11.55
12.26
12.82
13.16
13.31
13.32
13.23
13.09
12.83
12.38
11.63
10.54
9.14
7.50
5.70
3.82
1.88
-0.07
-1.96
-3.70
-5.18
-6.37
-7.27
-7.98
-8.56
-9.05
-9.39
-9.51
-9.35
-8.93
-8.34
-7.74
-7.23
-6.87
-6.62
-6.40
-6.11
-5.66
-5.08
-4.45
-3.93
-3.66
-3.76
-4.20
-4.87
-5.53
-5.91
-5.85
-5.27
-4.32
-3.30
-2.56
-2.38
-2.80
-3.53
-3.98
-3.44
-1.35
2.40
7.36
12.66
17.35
20.74
22.68
23.51
23.84
24.30
25.22
26.59
28.10
29.32
29.90
29.69
28.81
27.59
26.43
25.66
25.36
25.31
25.07
24.14
22.19
19.16
15.27
10.90
6.43
2.03
-2.37
-6.99
-12.04
-17.48
-22.92
-27.69
-31.16
-33.04
-33.52
-33.18
-32.68
-32.43
-32.40
-32.27
-31.66
-30.42
-28.76
-27.10
-25.83
-25.17
-25.08
-25.42
-26.01
-26.75
-27.53
-28.20
-28.52
-28.22
-27.05
-24.88
-21.74
-17.85
-13.52
-9.20
-5.33
-2.29
-0.32
0.62
0.72
0.35
-0.16
-0.57
-0.76
-0.75
-0.60
-0.34
0.02
0.47
1.01
1.59
2.16
2.60
2.83
2.80
2.48
1.92
1.20
0.41
-0.38
-1.14
-1.89
-2.63
-3.34
-3.98
-4.50
-4.93
-5.38
-6.02
-6.98
-8.30
-9.91
-11.66
-13.47
-15.34
-17.41
-19.87
-22.84
-26.32
-30.17
-34.22
-38.29
-42.27
-46.04
-49.38
-51.92
-53.23
-52.92
-50.85
-47.23
-42.63
-37.81
-33.51
-30.23
-28.10
-26.87
-26.02
-24.89
-22.77
-19.08
-13.41
-5.61
4.15
15.32
27.00
38.13
47.69
55.00
59.97
63.00
64.80
66.01
66.96
67.55
67.45
66.36
64.24
61.36
58.18
55.08
52.20
49.40
46.48
43.31
39.97
36.71
33.84
31.54
29.81
28.47
27.22
25.78
24.02
21.91
19.57
17.20
14.97
13.01
11.35
9.95
8.70
7.53
6.43
5.47
4.75
4.30
4.09
3.94
3.64
3.05
2.16
1.08
-0.03
-1.07
-2.03
-2.99
-4.02
-5.08
-6.03
-6.67
-6.90
-6.71
-6.22
-5.57
-4.86
-4.15
-3.48
-2.92
-2.54
-2.35
-2.32
-2.34
-2.31
-2.18
-1.93
-1.63
-1.31
-1.01
-0.77
-0.60
-0.55
-0.63
-0.81
-1.00
-1.12
-1.13
-1.08
-1.01
-0.97
-0.91
-0.76
-0.48
-0.15
0.10
0.16
-0.01
-0.35
-0.77
-1.22
-1.78
-2.54
-3.51
-4.55
-5.38
-5.73
-5.45
-4.65
-3.57
-2.48
-1.54
-0.74
0.02
0.77
1.49
2.03
2.30
2.28
2.10
1.93
1.91
2.07
2.35
2.68
2.96
3.16
3.31
3.40
3.43
3.36
3.16
2.86
2.53
2.24
2.08
2.06
2.15
2.22
2.15
1.83
1.29
0.61
-0.03
-0.47
-0.63
-0.59
-0.51
-0.59
-0.96
-1.65
-2.58
-3.53
-4.27
-4.62
-4.45
-3.79
-2.77
-1.62
-0.55
0.27
0.76
0.96
0.95
0.85
0.75
0.75
0.88
1.16
1.52
1.87
2.10
2.17
2.08
1.94
1.83
1.80
1.82
1.87
1.89
1.88
1.82
1.70
1.47
1.13
0.70
0.26
-0.10
-0.29
-0.34
-0.30
-0.28
-0.34
-0.50
-0.79
-1.21
-1.79
-2.52
-3.35
-4.16
-4.78
-5.08
-4.97
-4.48
-3.69
-2.73
-1.70
-0.69
0.24
1.04
1.69
2.17
2.52
2.79
3.04
3.32
3.58
3.77
3.82
3.71
3.48
3.22
3.02
2.95
3.01
3.13
3.21
3.20
3.08
2.87
2.59
2.22
1.69
0.97
0.07
-0.91
-1.81
-2.51
-2.97
-3.29
-3.63
-4.13
-4.81
-5.62
-6.39
-6.99
-7.29
-7.25
-6.90
-6.30
-5.54
-4.75
-4.03
-3.46
-3.04
-2.69
-2.29
-1.78
-1.15
-0.46
0.16
0.62
0.88
0.96
0.90
0.77
0.60
0.39
0.15
-0.06
-0.19
-0.15
0.05
0.39
0.78
1.13
1.37
1.48
1.45
1.27
0.95
0.48
-0.11
-0.75
-1.34
-1.79
-2.11
-2.34
-2.54
-2.78
-3.06
-3.32
-3.47
-3.44
-3.17
-2.72
-2.12
-1.50
-0.93
-0.50
-0.25
-0.14
-0.10
-0.05
0.08
0.28
0.48
0.62
0.65
0.58
0.50
0.50
0.61
0.80
0.98
1.03
0.88
0.51
-0.02
-0.65
-1.28
-1.84
-2.29
-2.58
-2.72
-2.72
-2.64
-2.60
-2.74
-3.16
-3.88
-4.76
-5.58
-6.10
-6.16
-5.78
-5.10
-4.36
-3.76
-3.37
-3.18
-3.09
-3.04
-3.05
-3.13
-3.30
-3.54
-3.79
-4.02
-4.26
-4.60
-5.13
-5.92
-6.92
-8.03
-9.15
-10.19
-11.15
-12.06
-12.97
-13.92
-14.97
-16.16
-17.56
-19.20
-21.11
-23.27
-25.62
-28.09
-30.54
-32.82
-34.78
-36.31
-37.38
-38.00
-38.16
-37.72
-36.42
-33.91
-29.92
-24.38
-17.57
-10.08
-2.69
3.88
9.11
12.76
14.95
15.97
16.22
16.11
16.00
16.17
16.77
17.85
19.26
20.81
22.26
23.42
24.22
24.66
24.84
24.86
24.84
24.85
24.89
24.86
24.49
23.51
21.74
19.21
16.20
13.11
10.28
7.88
5.85
3.98
2.15
0.33
-1.34
-2.62
-3.33
-3.37
-2.82
-1.88
-0.86
-0.04
0.37
0.39
0.21
0.13
0.35
0.87
1.49
1.88
1.81
1.26
0.44
-0.37
-0.96
-1.27
-1.45
-1.66
-2.03
-2.55
-3.09
-3.53
-3.77
-3.80
-3.66
-3.42
-3.10
-2.75
-2.39
-2.06
-1.85
-1.77
-1.84
-2.05
-2.39
-2.82
-3.32
-3.84
-4.26
-4.43
-4.24
-3.63
-2.68
-1.56
-0.48
0.40
1.03
1.45
1.76
2.06
2.39
2.73
3.03
3.27
3.46
3.62
3.82
4.05
4.31
4.56
4.79
5.03
5.31
5.68
6.14
6.63
7.08
7.39
7.52
7.45
7.26
7.01
6.75
6.46
6.11
5.63
5.05
4.40
3.77
3.19
2.67
2.19
1.74
1.35
1.13
1.15
1.43
1.92
2.49
3.04
3.49
3.87
4.17
4.40
4.53
4.50
4.29
3.88
3.31
2.55
1.61
0.50
-0.74
-1.99
-3.14
-4.09
-4.79
-5.24
-5.44
-5.38
-5.04
-4.39
-3.44
-2.22
-0.79
0.75
2.35
3.90
5.36
6.70
7.91
8.97
9.86
10.47
10.72
10.56
10.07
9.49
9.18
9.50
10.67
12.76
15.64
19.04
22.64
26.04
28.87
30.76
31.46
30.83
28.97
26.12
22.64
18.85
15.01
11.20
7.44
3.67
-0.09
-3.80
-7.39
-10.82
-14.04
-17.06
-19.83
-22.28
-24.31
-25.88
-27.01
-27.78
-28.31
-28.69
-28.90
-28.88
-28.57
-27.91
-26.88
-25.50
-23.80
-21.80
-19.56
-17.16
-14.70
-12.30
-10.05
-7.97
-6.00
-3.99
-1.81
0.66
3.43
6.39
9.32
12.00
14.30
16.27
18.10
20.07
22.33
24.84
27.32
29.40
30.76
31.36
31.35
31.08
30.85
30.82
30.96
31.11
31.04
30.61
29.76
28.54
27.06
25.41
23.63
21.71
19.64
17.41
15.08
12.75
10.57
8.62
6.97
5.55
4.27
3.04
1.79
0.52
-0.74
-1.95
-3.14
-4.37
-5.75
-7.37
-9.18
-11.05
-12.72
-13.98
-14.73
-15.03
-15.06
-14.99
-14.93
-14.85
-14.69
-14.37
-13.91
-13.40
-12.98
-12.77
-12.80
-13.01
-13.31
-13.59
-13.78
-13.88
-13.96
-14.07
-14.26
-14.52
-14.81
-15.05
-15.21
-15.27
-15.25
-15.16
-14.98
-14.69
-14.28
-13.78
-13.28
-12.89
-12.66
-12.61
-12.66
-12.72
-12.74
-12.69
-12.61
-12.55
-12.55
-12.66
-12.89
-13.23
-13.65
-14.05
-14.30
-14.26
-13.85
-13.09
-12.06
-10.89
-9.64
-8.31
-6.88
-5.34
-3.73
-2.15
-0.72
0.46
1.35
1.96
2.34
2.55
2.67
2.79
2.98
3.32
3.85
4.50
5.16
5.65
5.87
5.81
5.58
5.40
5.42
5.70
6.12
6.48
6.57
6.33
5.81
5.17
4.53
3.91
3.27
2.52
1.66
0.75
-0.16
-1.02
-1.86
-2.73
-3.69
-4.69
-5.59
-6.18
-6.28
-5.79
-4.79
-3.45
-2.06
-0.82
0.15
0.89
1.49
2.11
2.78
3.50
4.16
4.63
4.84
4.79
4.59
4.38
4.33
4.48
4.81
5.18
5.42
5.44
5.25
4.94
4.67
4.52
4.48
4.48
4.44
4.30
4.06
3.73
3.30
2.71
1.94
1.01
0.07
-0.74
-1.32
-1.68
-1.96
-2.35
-2.96
-3.78
-4.66
-5.36
-5.71
-5.57
-4.93
-3.86
-2.50
-0.97
0.58
2.06
3.36
4.45
5.29
5.87
6.19
6.26
6.10
5.75
5.30
4.85
4.49
4.27
4.14
4.04
3.87
3.60
3.31
3.11
3.14
3.35
3.62
3.67
3.35
2.62
1.62
0.58
-0.30
-0.99
-1.59
-2.24
-3.04
-3.95
-4.85
-5.57
-6.05
-6.32
-6.50
-6.73
-7.10
-7.62
-8.18
-8.59
-8.65
-8.22
-7.26
-5.86
-4.23
-2.55
-1.01
0.29
1.29
1.94
2.24
2.21
1.92
1.50
1.12
0.89
0.89
1.06
1.28
1.39
1.30
1.05
0.78
0.68
0.85
1.27
1.76
2.07
1.98
1.44
0.55
-0.48
-1.45
-2.23
-2.80
-3.23
-3.60
-3.98
-4.36
-4.77
-5.17
-5.58
-5.95
-6.20
-6.21
-5.85
-5.01
-3.70
-2.05
-0.27
1.46
3.01
4.36
5.59
6.76
7.90
8.96
9.83
10.43
10.74
10.84
10.87
10.98
11.23
11.54
11.77
11.73
11.32
10.64
9.89
9.33
9.11
9.17
9.32
9.29
8.86
8.02
6.84
5.51
4.13
2.76
1.39
-0.02
-1.46
-2.87
-4.22
-5.52
-6.79
-8.07
-9.32
-10.44
-11.30
-11.76
-11.73
-11.19
-10.17
-8.76
-7.11
-5.41
-3.86
-2.63
-1.82
-1.44
-1.36
-1.44
-1.49
-1.39
-1.12
-0.74
-0.34
0.02
0.30
0.51
0.70
0.90
1.09
1.25
1.34
1.34
1.27
1.16
1.02
0.84
0.55
0.10
-0.52
-1.24
-1.96
-2.58
-3.06
-3.47
-3.99
-4.75
-5.85
-7.21
-8.63
-9.83
-10.55
-10.66
-10.14
-9.13
-7.79
-6.32
-4.91
-3.69
-2.73
-2.04
-1.54
-1.08
-0.55
0.11
0.86
1.55
2.04
2.23
2.09
1.73
1.26
0.81
0.51
0.41
0.53
0.83
1.24
1.63
1.85
1.83
1.52
0.96
0.24
-0.54
-1.32
-2.06
-2.74
-3.40
-4.06
-4.80
-5.63
-6.61
-7.72
-8.95
-10.23
-11.46
-12.51
-13.25
-13.58
-13.46
-12.93
-12.10
-11.06
-9.88
-8.62
-7.28
-5.93
-4.65
-3.57
-2.83
-2.54
-2.74
-3.37
-4.31
-5.35
-6.28
-6.91
-7.17
-7.11
-6.86
-6.64
-6.61
-6.83
-7.27
-7.81
-8.32
-8.70
-8.92
-9.03
-9.13
-9.35
-9.77
-10.34
-10.92
-11.31
-11.29
-10.76
-9.73
-8.35
-6.83
-5.39
-4.16
-3.20
-2.41
-1.61
-0.56
1.00
3.18
5.95
9.03
12.06
14.65
16.57
17.77
18.37
18.54
18.46
18.23
17.88
17.40
16.81
16.13
15.40
14.64
13.86
13.10
12.40
11.79
11.33
10.98
10.66
10.28
9.77
9.12
8.36
7.60
6.89
6.26
5.69
5.07
4.32
3.36
2.21
0.92
-0.40
-1.67
-2.85
-3.97
-5.07
-6.15
-7.23
-8.24
-9.08
-9.65
-9.87
-9.69
-9.16
-8.34
-7.34
-6.26
-5.19
-4.20
-3.37
-2.76
-2.42
-2.35
-2.47
-2.67
-2.86
-3.01
-3.14
-3.33
-3.63
-4.04
-4.46
-4.83
-5.09
-5.23
-5.33
-5.49
-5.83
-6.43
-7.37
-8.64
-10.14
-11.70
-13.12
-14.26
-15.08
-15.64
-16.03
-16.26
-16.23
-15.77
-14.66
-12.80
-10.21
-7.06
-3.59
-0.14
2.98
5.48
7.19
8.18
8.74
9.37
10.58
12.70
15.81
19.69
24.00
28.33
32.40
36.01
39.02
41.31
42.76
43.22
42.64
41.07
38.73
35.95
33.13
30.58
28.48
26.86
25.66
24.86
24.56
24.93
26.11
28.01
30.33
32.69
34.82
36.76
38.76
41.12
43.92
46.94
49.71
51.74
52.76
52.84
52.34
51.73
51.49
51.93
53.11
54.67
55.92
56.06
54.41
50.64
44.75
36.77
26.58
13.84
-1.68
-19.63
-38.79
-57.16
-72.50
-82.95
-87.41
-85.51
-77.50
-64.35
-48.05
-31.89
-19.92
-15.73
-20.84
-33.73
-50.32
-65.58
-75.72
-79.49
-78.12
-74.04
-69.25
-64.49
-59.36
-53.32
-46.48
-39.71
-34.15
-30.41
-28.21
-26.56
-24.39
-21.07
-16.74
-12.06
-7.83
-4.54
-2.24
-0.52
1.13
3.16
5.72
8.71
11.88
14.96
17.78
20.26
22.43
24.41
26.39
28.49
30.69
32.67
33.93
33.90
32.27
29.13
25.03
20.74
16.93
13.96
11.75
9.98
8.24
6.34
4.30
2.39
0.97
0.29
0.44
1.30
2.57
3.89
4.88
5.28
4.90
3.66
1.56
-1.29
-4.67
-8.20
-11.44
-14.04
-15.79
-16.76
-17.24
-17.58
-18.02
-18.56
-19.04
-19.22
-18.91
-18.07
-16.80
-15.29
-13.67
-12.04
-10.40
-8.73
-6.99
-5.20
-3.40
-1.71
-0.23
0.94
1.76
2.25
2.49
2.60
2.67
2.80
3.03
3.41
3.95
4.66
5.45
6.18
6.64
6.64
6.14
5.25
4.22
3.31
2.70
2.43
2.37
2.31
2.08
1.56
0.75
-0.27
-1.36
-2.43
-3.43
-4.43
-5.52
-6.78
-8.20
-9.63
-10.80
-11.43
-11.29
-10.37
-8.81
-6.87
-4.81
-2.80
-0.91
0.88
2.55
4.07
5.38
6.45
7.29
8.00
8.72
9.52
10.43
11.35
12.18
12.84
13.33
13.71
14.06
14.45
14.92
15.46
16.00
16.44
16.67
16.56
16.00
14.96
13.51
11.75
9.82
7.81
5.79
3.73
1.64
-0.51
-2.69
-4.90
-7.11
-9.28
-11.32
-13.12
-14.53
-15.48
-15.97
-16.16
-16.26
-16.47
-16.87
-17.43
-18.03
-18.55
-19.01
-19.51
-20.21
-21.20
-22.35
-23.37
-23.92
-23.77
-22.92
-21.62
-20.25
-19.18
-18.60
-18.52
-18.77
-19.10
-19.28
-19.07
-18.30
-16.93
-15.07
-13.01
-11.12
-9.71
-8.91
-8.57
-8.39
-8.02
-7.28
-6.18
-4.91
-3.69
-2.69
-2.02
-1.65
-1.51
-1.50
-1.54
-1.55
-1.47
-1.24
-0.78
0.02
1.28
3.04
5.20
7.51
9.60
11.19
12.16
12.65
12.93
13.36
14.20
15.57
17.39
19.45
21.40
22.85
23.46
23.06
21.69
19.63
17.28
15.12
13.53
12.79
13.01
14.13
15.80
17.46
18.48
18.38
17.05
14.83
12.34
10.15
8.56
7.52
6.77
6.06
5.26
4.37
3.37
2.19
0.69
-1.16
-3.17
-4.92
-5.89
-5.69
-4.14
-1.38
2.20
6.13
9.86
12.93
14.99
15.80
15.30
13.60
11.03
8.02
5.17
3.02
2.02
2.31
3.69
5.56
7.14
7.71
6.83
4.53
1.20
-2.54
-6.12
-9.16
-11.60
-13.68
-15.88
-18.74
-22.59
-27.42
-32.75
-37.77
-41.64
-43.78
-44.16
-43.28
-41.90
-40.73
-40.16
-40.32
-41.20
-42.90
-45.63
-49.54
-54.45
-59.80
-64.78
-68.74
-71.56
-73.67
-75.87
-78.83
-82.72
-87.04
-90.72
-92.42
-90.70
-84.26
-72.11
-53.88
-30.10
-2.36
26.89
54.84
79.09
98.16
111.70
120.26
124.77
126.11
124.97
121.84
117.22
111.61
105.46
99.13
92.71
86.15
79.32
72.13
64.56
56.68
48.59
40.43
32.44
24.92
18.24
12.62
8.11
4.55
1.72
-0.56
-2.30
-3.39
-3.78
-3.51
-2.85
-2.08
-1.44
-1.04
-0.79
-0.61
-0.42
-0.28
-0.27
-0.48
-0.88
-1.37
-1.79
-2.03
-2.11
-2.11
-2.18
-2.38
-2.74
-3.18
-3.61
-3.98
-4.30
-4.62
-4.97
-5.31
-5.60
-5.81
-5.95
-6.11
-6.39
-6.79
-7.22
-7.54
-7.66
-7.60
-7.53
-7.66
-8.10
-8.79
-9.49
-9.96
-10.01
-9.65
-9.00
-8.22
-7.43
-6.63
-5.82
-5.03
-4.29
-3.68
-3.18
-2.69
-2.15
-1.51
-0.91
-0.49
-0.36
-0.50
-0.74
-0.85
-0.73
-0.44
-0.11
0.11
0.21
0.30
0.48
0.76
0.99
0.97
0.57
-0.16
-1.03
-1.81
-2.34
-2.63
-2.82
-3.07
-3.49
-4.07
-4.75
-5.44
-6.05
-6.56
-6.92
-7.03
-6.81
-6.21
-5.24
-4.05
-2.88
-1.90
-1.19
-0.72
-0.40
-0.14
0.07
0.21
0.26
0.25
0.27
0.40
0.68
1.06
1.41
1.62
1.66
1.58
1.46
1.39
1.42
1.50
1.56
1.55
1.42
1.22
0.99
0.79
0.66
0.58
0.50
0.33
-0.00
-0.53
-1.21
-1.96
-2.70
-3.33
-3.84
-4.25
-4.59
-4.88
-5.12
-5.25
-5.27
-5.16
-4.93
-4.59
-4.11
-3.48
-2.69
-1.79
-0.87
-0.03
0.65
1.16
1.52
1.80
2.04
2.26
2.44
2.60
2.72
2.82
2.88
2.93
2.93
2.89
2.81
2.67
2.52
2.39
2.33
2.35
2.44
2.54
2.58
2.49
2.25
1.90
1.49
1.07
0.66
0.25
-0.17
-0.60
-0.97
-1.25
-1.40
-1.48
-1.61
-1.95
-2.62
-3.61
-4.74
-5.72
-6.23
-6.09
-5.36
-4.26
-3.17
-2.34
-1.87
-1.64
-1.44
-1.09
-0.55
0.10
0.72
1.22
1.57
1.78
1.91
1.99
2.05
2.12
2.21
2.36
2.55
2.76
2.92
2.98
2.95
2.86
2.81
2.87
3.05
3.27
3.39
3.26
2.82
2.12
1.31
0.58
0.07
-0.18
-0.23
-0.22
-0.26
