1579644464.00
64.000000
-0.00
-0.00
-0.00
-0.00
-0.00
-0.00
-0.00
-0.00
-0.00
-0.00
0.00
0.01
0.01
-0.00
-0.03
-0.05
-0.05
0.00
0.13
0.36
0.66
1.01
1.37
1.72
2.06
2.40
2.79
3.24
3.80
4.42
5.06
5.66
6.20
6.68
7.15
7.68
8.31
9.14
10.09
11.04
11.88
12.56
13.14
13.76
14.65
15.96
17.91
20.32
22.90
25.38
27.58
29.57
31.68
34.32
37.81
42.54
48.15
54.10
59.83
64.97
69.58
74.14
79.34
85.71
93.76
103.00
112.62
121.73
129.77
136.75
143.30
150.75
157.77
166.64
177.95
191.79
206.97
220.57
228.25
225.36
208.53
176.87
132.76
80.05
23.07
-34.94
-92.44
-149.16
-205.23
-260.37
-313.74
-363.87
-409.83
-450.91
-486.50
-515.74
-537.23
-549.22
-549.96
-538.37
-514.21
-478.67
-433.88
-382.45
-327.02
-269.84
-212.63
-156.66
-102.95
-52.37
-5.90
35.58
71.43
101.35
125.50
144.38
158.70
169.15
176.37
180.75
182.57
182.07
179.53
175.26
169.68
163.18
156.09
148.67
141.08
133.39
125.68
117.98
110.35
102.84
95.48
88.31
81.38
74.71
68.34
62.31
56.63
51.28
46.23
41.43
36.85
32.52
28.46
24.75
21.42
18.49
15.88
13.47
11.16
8.86
6.61
4.52
2.76
1.44
0.56
-0.02
-0.57
-1.34
-2.49
-3.94
-5.45
-6.68
-7.36
-7.46
-7.22
-7.07
-7.44
-8.55
-10.27
-12.19
-13.78
-14.67
-14.79
-14.42
-14.01
-14.03
-14.81
-16.53
-19.23
-22.65
-26.07
-28.16
-27.31
-22.22
-12.69
0.00
13.39
24.74
32.16
35.23
34.93
32.81
30.22
27.75
25.33
22.73
19.97
17.47
15.76
15.09
15.19
15.44
15.09
13.73
11.53
9.16
7.47
7.04
7.87
9.27
10.29
10.16
8.83
7.03
5.92
6.51
9.11
13.21
17.69
21.42
23.71
24.59
24.69
24.89
25.82
27.56
29.60
31.03
31.02
29.23
25.95
22.01
18.36
15.62
13.77
12.38
10.89
8.99
6.32
2.15
-4.65
-15.07
-28.74
-43.30
-54.84
-59.59
-56.12
-46.49
-35.82
-29.57
-30.97
-39.43
-51.12
-61.49
-68.13
-71.82
-75.29
-80.44
-86.11
-88.09
-81.30
-63.18
-35.68
-4.61
23.19
43.19
54.77
60.03
60.85
57.02
45.92
25.29
-4.05
-37.01
-66.08
-85.06
-92.11
-90.13
-83.71
-76.46
-69.03
-59.85
-47.15
-31.01
-13.92
0.48
9.61
14.43
17.93
23.50
32.21
42.38
50.71
54.34
52.82
48.84
48.64
55.52
71.66
95.52
123.02
149.96
173.99
195.59
209.57
213.57
206.62
189.62
164.20
133.21
100.66
70.20
44.61
25.03
12.32
6.30
7.95
17.03
33.66
57.14
82.63
103.05
112.11
108.17
94.22
76.88
63.17
57.68
59.68
62.38
57.46
39.91
11.37
-22.24
-54.50
-82.12
-105.86
-129.62
-161.62
-207.65
-267.77
-336.49
-406.79
-472.96
-530.67
-575.58
-579.29
-524.42
-415.80
-280.09
-149.10
-44.99
24.23
62.50
81.31
93.05
102.69
109.62
111.68
108.23
100.69
92.32
87.59
90.91
103.07
118.82
130.96
133.94
126.52
111.16
92.63
76.40
67.45
67.67
74.35
83.27
90.27
92.20
86.20
70.01
42.95
7.01
-35.17
-81.36
-128.99
-173.56
-208.01
-228.70
-238.53
-249.46
-265.65
-287.21
-312.19
-332.98
-342.62
-335.31
-310.10
-271.43
-227.10
-184.00
-147.05
-117.61
-93.04
-69.82
-43.03
-10.08
28.87
71.90
117.34
163.29
207.56
249.34
287.48
324.29
361.83
400.60
439.50
476.59
508.83
531.23
540.19
532.80
513.29
488.78
466.67
452.60
449.85
459.15
477.28
500.93
496.95
444.54
344.79
220.69
100.75
3.01
-59.27
-97.27
-120.12
-133.35
-135.31
-123.77
-102.59
-77.86
-56.11
-41.33
-35.45
-35.74
-38.52
-38.20
-31.42
-21.07
-12.65
-11.18
-18.75
-35.79
-59.77
-87.16
-113.84
-136.12
-155.66
-174.94
-195.18
-215.60
-235.18
-252.57
-266.39
-277.08
-285.11
-295.96
-313.99
-340.18
-372.60
-408.49
-445.90
-483.14
-522.01
-532.30
-497.13
-420.48
-323.23
-225.78
-136.75
-69.90
-15.46
31.47
71.35
97.51
104.33
95.47
75.63
50.64
32.41
30.57
46.64
76.70
110.65
140.34
162.29
177.15
187.02
193.61
198.58
201.35
202.11
199.72
194.20
186.16
176.48
165.28
152.09
137.06
120.07
102.30
84.61
68.02
52.62
38.23
22.97
5.07
-16.23
-41.13
-69.75
-103.88
-140.33
-179.45
-211.05
-228.66
-231.35
-224.22
-214.40
-206.07
-198.53
-186.92
-165.72
-130.77
-83.80
-31.02
19.01
58.90
84.89
97.51
100.46
97.66
92.52
85.82
77.88
69.72
63.26
60.06
60.16
61.93
62.44
59.75
52.72
42.41
31.81
24.72
24.32
31.65
44.48
56.96
61.46
50.61
21.83
-20.23
-63.88
-94.61
-100.76
-78.64
-33.94
20.21
68.18
97.57
102.67
84.62
49.03
3.03
-46.55
-93.14
-130.40
-152.51
-155.25
-137.68
-103.50
-60.39
-18.19
14.04
31.37
33.94
26.41
16.25
11.15
16.69
35.00
64.09
95.80
120.45
128.84
114.75
77.10
20.39
-46.20
-110.68
-161.35
-189.94
-193.53
-175.51
-144.25
-110.14
-82.27
-65.75
-60.55
-62.42
-64.97
-61.96
-49.84
-28.96
-3.81
18.49
31.01
30.54
19.50
5.40
-2.59
1.90
19.82
47.19
78.13
108.26
135.84
160.67
182.18
198.62
207.38
206.94
197.77
182.20
163.12
142.70
122.28
103.36
88.05
78.29
74.36
73.47
70.30
59.62
39.27
11.67
-17.56
-43.13
-63.26
-80.43
-99.34
-123.37
-151.90
-180.14
-201.55
-210.86
-206.26
-189.11
-162.28
-128.44
-89.61
-47.92
-6.76
29.39
56.05
70.63
73.58
68.23
59.31
51.41
47.91
50.50
59.12
72.13
86.38
97.76
102.18
97.04
82.29
60.48
35.65
11.59
-9.54
-27.74
-44.31
-60.35
-75.39
-87.13
-92.07
-86.96
-70.04
-41.89
-5.36
34.89
73.31
104.27
123.09
126.87
114.90
88.77
51.63
6.93
-42.65
-95.52
-150.24
-204.04
-251.68
-285.94
-299.76
-288.98
-254.48
-202.37
-142.04
-83.16
-32.69
6.58
35.67
57.75
75.89
91.67
104.95
114.85
121.26
125.64
130.47
137.54
146.34
153.88
156.65
153.29
146.33
141.31
143.62
155.02
172.11
187.95
195.81
192.60
179.79
161.71
142.46
123.92
105.81
87.18
68.09
50.01
34.97
24.16
17.13
11.97
6.07
-2.81
-15.71
-32.21
-50.51
-67.82
-81.07
-87.85
-87.36
-80.85
-71.42
-62.84
-58.06
-57.97
-61.08
-64.41
-65.16
-62.17
-56.67
-51.34
-48.69
-49.49
-52.32
-54.35
-52.76
-45.95
-33.99
-18.35
-1.62
13.05
22.20
22.67
12.70
-6.85
-32.08
-57.32
-77.40
-89.67
-94.59
-94.41
-91.05
-84.67
-73.73
-56.24
-31.51
-0.68
33.78
69.33
103.67
134.05
156.82
168.84
169.97
164.81
162.01
170.65
195.28
232.59
271.88
299.98
308.04
295.50
269.18
238.20
208.68
181.21
151.94
115.55
68.23
10.17
-54.85
-121.00
-182.04
-232.15
-266.63
-280.67
-270.91
-240.63
-199.85
-159.79
-126.82
-101.35
-80.97
-63.91
-49.95
-39.15
-31.09
-22.35
-8.10
14.72
44.72
76.24
101.94
116.16
117.28
106.08
87.31
66.43
46.75
28.19
8.35
-15.48
-44.20
-76.36
-108.96
-138.43
-162.12
-178.97
-189.22
-193.59
-192.99
-188.90
-184.46
-184.46
-193.22
-211.68
-234.95
-252.97
-255.06
-236.19
-201.22
-163.85
-139.98
-139.07
-158.92
-186.95
-207.20
-208.64
-189.90
-158.03
-123.03
-91.82
-65.22
-39.53
-10.42
23.69
60.88
97.24
129.46
156.23
178.00
195.33
207.36
211.08
201.70
174.78
128.62
66.34
-3.81
-70.43
-122.48
-152.99
-161.03
-151.11
-130.39
-105.22
-78.73
-50.59
-18.33
20.35
65.96
116.22
165.92
207.64
233.28
236.67
216.38
177.65
131.75
92.56
71.49
73.72
97.23
134.62
176.86
216.48
248.71
270.91
281.17
277.65
258.89
224.81
177.81
123.19
68.81
23.69
-4.23
-10.64
3.03
29.20
56.10
71.31
66.03
37.92
-8.63
-64.16
-117.11
-156.85
-175.98
-171.77
-146.97
-109.18
-68.94
-36.48
-18.56
-16.55
-27.03
-44.00
-61.47
-75.33
-83.66
-85.73
-81.26
-70.35
-54.33
-36.69
-22.81
-18.22
-25.94
-44.50
-67.88
-87.90
-97.64
-94.27
-79.60
-58.11
-34.22
-10.15
13.75
37.13
57.44
70.13
71.04
59.83
41.83
26.16
21.06
28.91
44.29
56.84
57.08
41.76
15.24
-13.51
-36.28
-49.59
-55.11
-56.43
-55.17
-49.29
-34.65
-9.08
24.11
55.63
73.45
68.23
37.91
-11.10
-66.66
-115.85
-149.55
-164.40
-162.08
-146.90
-123.53
-96.26
-69.29
-46.91
-32.59
-27.11
-27.18
-25.82
-15.35
8.63
44.25
83.35
114.53
127.67
117.71
86.52
42.28
-3.15
-37.92
-53.85
-49.18
-28.53
-0.28
27.15
48.20
61.38
68.05
70.39
70.15
68.17
64.78
59.88
52.67
41.45
24.17
0.00
-29.01
-57.53
-78.65
-86.95
-80.98
-63.93
-41.78
-20.66
-4.74
4.30
6.85
4.69
0.55
-2.30
-0.80
6.83
19.95
35.20
47.72
53.32
50.40
41.02
29.88
21.83
19.62
22.43
26.40
26.68
19.64
4.53
-16.35
-38.77
-58.17
-71.09
-76.11
-73.97
-66.96
-57.81
-48.54
-39.57
-29.87
-17.82
-2.31
16.17
35.63
53.56
68.04
78.32
84.70
87.59
86.90
82.15
72.84
59.17
42.07
22.68
1.74
-20.47
-43.82
-67.42
-89.17
-105.98
-114.58
-112.85
-100.89
-81.26
-58.20
-36.33
-19.23
-8.58
-4.07
-3.95
-6.05
-8.70
-11.27
-14.17
-18.27
-24.18
-31.60
-39.18
-45.05
-47.73
-47.12
-44.57
-42.18
-41.59
-43.03
-45.36
-47.02
-47.09
-45.71
-43.52
-40.75
-36.70
-30.27
-21.18
-10.85
-2.19
1.87
0.13
-6.04
-13.05
-16.70
-14.10
-4.52
10.73
29.36
49.14
68.46
86.46
102.72
117.18
129.86
140.85
150.13
157.44
162.32
164.40
163.72
160.86
156.65
151.75
146.30
139.88
131.87
122.01
110.56
98.04
84.62
69.81
52.64
32.49
9.71
-14.08
-36.55
-55.51
-69.79
-79.54
-85.84
-89.96
-92.68
-94.00
-93.47
-90.69
-85.86
-79.79
-73.62
-68.22
-63.82
-60.03
-56.16
-51.74
-46.73
-41.41
-35.94
-30.03
-22.93
-13.89
-2.78
9.58
21.61
31.73
39.09
43.97
47.46
50.91
55.29
60.95
67.57
74.32
79.87
82.51
80.39
72.01
57.04
36.68
13.64
-8.72
-27.45
-40.96
-49.26
-53.50
-55.20
-55.53
-54.91
-53.23
-50.29
-46.27
-41.88
-38.16
-35.81
-34.74
-33.98
-32.16
-28.39
-22.77
-16.18
-9.61
-3.39
3.18
10.89
19.28
25.75
26.36
17.95
0.67
-21.12
-40.68
-52.35
-54.64
-50.61
-45.09
-41.05
-37.60
-31.27
-19.77
-5.14
6.50
8.36
-2.23
-21.40
-40.64
-51.31
-49.03
-35.05
-14.13
8.62
29.44
45.48
53.78
51.31
37.06
14.34
-8.93
-22.95
-20.69
-1.94
26.21
52.79
68.17
68.49
56.69
39.88
25.33
16.84
13.59
11.47
5.89
-5.76
-22.69
-41.47
-58.03
-69.87
-77.57
-84.10
-92.62
-104.13
-116.42
-124.96
-125.38
-116.11
-99.33
-79.81
-62.51
-50.07
-42.22
-36.73
-31.32
-25.02
-18.31
-12.15
-7.02
-2.57
1.74
5.78
8.63
9.14
7.00
3.43
1.15
3.31
12.33
29.07
52.57
80.50
109.68
136.62
157.94
170.88
173.84
166.98
152.30
133.16
113.28
95.69
82.06
72.78
67.32
64.67
63.71
63.13
61.69
58.39
52.82
45.28
36.44
26.71
15.89
3.33
-11.43
-27.90
-44.31
-58.13
-67.01
-69.62
-66.03
-57.26
-44.79
-30.32
-15.85
-3.77
3.50
4.38
-0.92
-10.28
-20.61
-29.53
-36.61
-43.38
-51.93
-63.20
-75.98
-87.52
-95.19
-98.09
-97.65
-96.81
-98.56
-104.65
-115.05
-128.01
-140.45
-148.47
-147.83
-134.95
-108.25
-69.22
-22.76
23.93
63.64
91.55
106.66
111.70
111.50
110.69
111.96
115.45
119.54
122.30
122.82
121.55
119.80
118.37
116.53
112.03
102.09
84.98
61.31
34.11
7.87
-13.36
-27.50
-35.09
-38.95
-43.02
-51.03
-65.35
-86.01
-110.41
-133.73
-150.32
-155.54
-147.41
-127.27
-98.96
-67.18
-35.91
-7.63
16.44
35.82
50.46
60.79
67.91
73.39
78.60
84.10
89.54
94.28
98.02
100.92
103.04
103.63
101.03
93.51
80.36
62.63
42.82
23.67
6.96
-7.07
-19.31
-30.75
-41.75
-51.76
-59.63
-64.23
-64.97
-62.05
-56.39
-49.39
-42.59
-37.30
-34.29
-33.58
-34.38
-35.44
-35.44
-33.54
-29.62
-24.27
-18.49
-13.24
-9.12
-6.34
-4.89
-4.77
-6.05
-8.84
-13.01
-18.04
-22.97
-26.58
-27.60
-25.07
-18.67
-8.97
2.53
13.73
22.49
27.48
28.59
26.91
24.07
21.37
19.13
16.70
13.18
8.19
2.46
-2.51
-5.26
-5.32
-3.68
-2.54
-4.35
-10.56
-20.94
-33.49
-45.28
-53.62
-57.16
-56.36
-53.19
-50.26
-49.77
-52.82
-59.13
-67.51
-76.41
-84.59
-91.49
-97.22
-102.52
-108.26
-115.17
-123.30
-131.95
-139.74
-144.91
-145.74
-140.78
-128.98
-109.85
-83.44
-50.07
-9.95
37.21
92.09
154.89
223.86
294.24
358.22
406.34
430.04
424.27
389.28
330.83
258.89
185.21
120.41
71.62
41.11
26.40
21.99
21.75
21.32
19.02
15.26
10.89
6.00
0.04
-7.06
-13.98
-17.90
-15.96
-7.15
6.84
22.64
37.44
50.91
65.53
85.05
111.55
143.64
176.21
202.20
215.28
212.29
194.14
165.37
132.59
102.45
79.79
66.28
60.02
56.12
48.11
30.13
-1.17
-45.85
-101.51
-164.70
-231.91
-299.40
-362.52
-415.10
-450.35
-462.99
-451.67
-420.13
-376.02
-328.18
-283.47
-244.64
-210.80
-179.22
-147.50
-115.20
-83.78
-55.40
-31.51
-12.05
4.48
20.13
36.34
53.07
68.81
81.39
88.99
90.93
87.95
81.90
74.94
68.74
64.03
60.57
57.59
54.32
50.49
46.58
43.76
43.31
45.69
50.18
55.30
59.69
62.76
64.76
66.26
67.75
69.05
69.32
67.73
64.22
60.12
57.56
58.46
63.39
71.48
80.68
88.53
93.14
92.69
86.71
75.74
62.08
46.49
29.47
11.91
-4.40
-17.78
-28.00
-36.77
-47.19
-62.04
-82.16
-105.39
-127.80
-146.04
-158.90
-167.46
-174.28
-181.97
-191.79
-203.17
-213.63
-219.69
-217.86
-204.84
-177.63
-134.76
-77.10
-8.20
66.48
141.27
211.60
271.12
312.74
331.15
324.98
297.89
257.39
212.73
172.75
143.72
129.04
125.60
127.89
130.11
127.73
118.52
102.72
82.12
58.60
32.73
5.87
-21.14
-47.66
-73.04
-96.50
-117.09
-133.83
-145.98
-153.51
-154.99
-149.20
-135.04
-112.32
-81.95
-46.13
-8.09
32.18
66.09
93.20
114.46
132.42
149.33
166.28
182.73
196.92
206.96
211.23
210.79
206.99
200.99
191.20
174.23
146.41
106.10
55.19
-1.63
-57.06
-104.81
-140.93
-166.97
-187.59
-208.18
-232.47
-261.80
-295.70
-331.15
-363.44
-386.11
-395.75
-392.25
-379.61
-364.94
-356.21
-359.55
-376.32
-402.65
-413.23
-387.51
-318.04
-215.58
-102.20
2.31
88.49
156.25
209.59
252.26
283.42
299.96
300.54
287.75
267.23
245.33
226.15
210.90
198.63
185.50
166.59
139.24
104.16
64.36
23.02
-18.35
-60.82
-107.94
-154.73
-199.13
-238.58
-269.17
-285.36
-281.10
-252.84
-202.55
-138.29
-72.35
-17.89
17.45
33.50
35.93
32.95
30.83
31.44
33.72
35.92
36.64
36.77
38.50
43.59
53.17
66.65
81.31
94.09
103.11
108.07
111.01
115.23
124.15
139.25
162.20
193.39
231.43
272.98
312.53
343.50
359.73
348.43
305.26
237.07
159.23
88.03
33.24
-3.71
-26.45
-39.39
-45.92
-46.39
-40.98
-31.87
-22.92
-17.68
-17.47
-20.84
-24.82
-27.53
-27.49
-25.14
-23.14
-24.68
-31.70
-43.87
-59.05
-74.32
-88.54
-101.00
-112.21
-123.97
-138.65
-158.42
-184.37
-215.81
-243.58
-260.94
-261.49
-241.82
-203.78
-154.73
-105.12
-64.63
-38.63
-26.84
-25.79
-30.30
-36.59
-43.41
-51.09
-59.63
-67.90
-73.82
-75.61
-73.21
-67.87
-61.77
-57.15
-55.20
-55.32
-55.94
-55.34
-52.42
-47.72
-42.76
-39.57
-39.87
-44.37
-51.94
-60.58
-68.05
-72.61
-73.77
-71.93
-67.85
-61.73
-56.25
-51.23
-45.25
-36.44
-23.46
-6.23
14.06
35.46
56.04
74.61
91.73
108.66
126.84
147.38
170.78
196.90
225.15
254.30
282.21
306.21
322.92
329.45
324.78
310.70
291.43
272.03
256.26
245.27
238.18
233.36
230.31
230.32
235.35
245.69
258.20
266.51
263.46
244.61
210.43
166.52
121.10
81.60
51.90
31.45
16.39
1.80
-16.05
-38.72
-65.44
-93.90
-121.29
-145.16
-163.87
-176.70
-183.37
-183.47
-176.05
-159.85
-134.01
-98.68
-55.11
-5.14
49.40
106.69
164.56
219.88
268.50
306.14
329.77
338.75
334.94
321.62
301.84
277.37
248.71
216.28
181.38
146.49
114.32
86.34
61.89
38.29
12.19
-18.81
-54.74
-93.21
-130.42
-163.09
-190.13
-213.29
-236.52
-264.39
-300.69
-347.20
-403.30
-465.54
-527.84
-581.95
-618.86
-631.37
-617.11
-580.48
-532.20
-485.67
-451.79
-434.93
-431.82
-433.99
-432.50
-422.33
-404.01
-382.10
-361.55
-343.88
-326.84
-306.21
-278.71
-244.21
-205.91
-168.40
-135.06
-106.34
-78.80
-48.28
-12.72
26.37
64.61
97.33
121.99
139.56
154.03
172.45
200.69
241.59
294.71
357.36
425.62
494.45
557.79
609.17
645.65
666.52
673.07
667.45
651.56
626.51
592.66
550.74
489.89
409.04
316.72
227.92
155.56
104.39
71.72
52.02
40.83
35.37
36.41
44.35
57.74
73.24
86.97
96.32
100.57
100.65
97.78
95.00
94.39
96.19
98.80
99.80
97.01
88.60
77.17
64.14
51.62
40.84
31.88
23.87
15.75
7.11
-1.71
-9.67
-16.24
-20.37
-21.48
-19.63
-15.45
-9.77
-3.28
3.61
10.68
17.25
22.87
27.00
29.12
28.86
26.08
21.00
14.12
6.00
-3.20
-13.49
-24.93
-37.57
-51.16
-65.19
-78.93
-91.67
-103.09
-113.54
-123.95
-135.53
-149.31
-165.74
-184.49
-204.60
-224.95
-244.82
-264.34
-284.46
-306.39
-331.05
-358.36
-387.02
-415.08
-440.39
-461.51
-478.06
-490.62
-500.46
-509.32
-519.25
-532.23
-549.34
-569.36
-587.97
-598.19
-592.41
-565.35
-516.47
-450.42
-375.29
-299.44
-228.71
-165.27
-108.44
-56.57
-8.59
35.58
75.84
112.94
148.98
186.81
228.53
274.02
320.44
362.65
395.13
413.92
417.88
408.71
389.84
364.85
336.26
305.44
272.98
239.47
205.89
173.31
142.57
113.92
87.08
61.71
37.87
16.32
-1.60
-14.41
-21.03
-21.50
-16.91
-9.30
-1.05
5.64
9.19
8.67
3.76
-5.28
-17.57
-31.51
-44.97
-55.76
-62.27
-64.04
-61.77
-56.89
-51.01
-45.27
-40.17
-35.75
-31.75
-27.77
-23.48
-18.50
-12.54
-5.52
2.44
11.09
20.19
29.68
39.72
50.33
61.20
71.54
80.30
86.60
90.10
91.08
90.33
88.75
87.04
85.50
84.14
82.61
80.57
77.61
73.37
67.79
61.01
53.46
45.67
38.12
31.29
25.70
21.86
20.15
20.55
22.49
24.80
26.11
25.27
21.89
16.52
10.43
5.18
2.01
1.49
3.33
6.57
9.95
12.28
12.73
10.93
6.92
1.23
-5.33
-11.53
-15.91
-17.05
-14.07
-6.96
3.18
14.42
24.51
31.54
34.34
32.68
27.13
18.66
8.46
-2.27
-12.34
-20.52
-25.63
-26.70
-23.27
-15.63
-4.84
7.38
19.14
28.73
35.14
38.12
38.23
36.50
34.17
32.34
31.76
32.64
34.60
36.81
38.25
38.15
36.19
32.58
27.91
22.87
18.02
13.68
10.00
7.07
5.00
3.85
3.60
3.95
4.45
4.59
3.96
2.33
-0.24
-3.40
-6.64
-9.28
-10.63
-10.14
-7.58
-3.11
2.66
8.80
14.39
18.66
21.34
22.55
22.71
22.33
21.74
21.05
20.20
19.09
17.67
16.06
14.41
12.87
11.47
10.12
8.64
6.81
4.51
1.65
-1.69
-5.29
-8.82
-11.87
-14.17
-15.64
-16.52
-17.26
-18.38
-20.19
-22.71
-25.67
-28.64
-31.12
-32.82
-33.68
-33.94
-34.08
-34.66
-35.99
-38.01
-40.02
-40.84
-38.88
-32.60
-20.92
-3.69
17.75
40.63
61.10
75.41
81.25
78.80
70.66
60.71
52.43
47.43
45.23
44.01
42.13
39.04
35.39
32.23
29.99
28.17
25.74
21.91
16.84
11.68
7.85
6.27
6.95
8.98
11.17
12.46
12.38
10.95
8.47
5.27
1.54
-2.57
-6.86
-10.98
-14.49
-16.93
-17.99
-17.53
-15.62
-12.57
-8.79
-4.83
-1.24
1.52
3.25
4.03
4.24
4.36
4.76
5.56
6.54
7.31
7.49
6.88
5.56
3.80
2.01
0.58
-0.19
-0.22
0.39
1.34
2.27
2.88
3.00
2.69
2.10
1.46
0.83
0.26
-0.38
-1.20
-2.30
-3.66
-5.24
-6.96
-8.69
-10.34
-11.77
-12.80
-13.24
-12.91
-11.71
-9.68
-6.97
-3.89
-0.73
2.20
4.74
6.77
8.31
9.36
9.88
9.86
9.31
8.29
7.03
5.81
4.94
4.56
4.62
4.88
4.98
4.68
3.91
2.80
1.63
0.61
-0.15
-0.71
-1.23
-1.88
-2.79
-4.01
-5.60
-7.50
-9.64
-11.78
-13.63
-14.85
-15.13
-14.32
-12.43
-9.64
-6.25
-2.67
0.67
3.32
4.95
5.40
4.76
3.34
1.61
0.11
-0.76
-0.75
0.16
1.84
4.03
6.40
8.60
10.33
11.33
11.49
10.82
9.41
7.49
5.34
3.24
1.44
0.07
-0.79
-1.24
-1.43
-1.62
-1.99
-2.67
-3.62
-4.65
-5.58
-6.28
-6.72
-7.00
-7.21
-7.38
-7.37
-7.00
-6.10
-4.65
-2.77
-0.69
1.36
3.26
4.98
6.55
7.93
9.03
9.64
9.63
8.97
7.83
6.53
5.38
4.63
4.29
4.21
4.14
3.89
3.40
2.78
2.22
1.83
1.57
1.26
0.70
-0.24
-1.47
-2.76
-3.82
-4.44
-4.63
-4.53
-4.45
-4.65
-5.33
-6.51
-8.11
-9.94
-11.72
-13.14
-13.86
-13.61
-12.25
-9.82
-6.60
-3.01
0.44
3.33
5.39
6.59
7.06
7.03
6.77
6.46
6.21
6.06
6.00
5.95
5.88
5.78
5.68
5.65
5.72
5.90
6.05
6.03
5.74
5.21
4.55
3.88
3.29
2.70
2.02
1.15
0.14
-0.89
-1.77
-2.48
-3.15
-3.95
-4.98
-6.17
-7.30
-8.06
-8.29
-7.91
-6.98
-5.60
-3.83
-1.76
0.53
2.86
4.96
6.56
7.46
7.63
7.12
6.08
4.69
3.18
1.73
0.59
-0.09
-0.24
0.13
0.80
1.54
2.08
2.25
1.99
1.42
0.73
0.12
-0.27
-0.45
-0.56
-0.84
-1.52
-2.74
-4.45
-6.44
-8.40
-9.99
-11.04
-11.49
-11.40
-10.93
-10.24
-9.50
-8.85
-8.36
-7.99
-7.65
-7.15
-6.32
-5.06
-3.42
-1.60
0.10
1.41
2.16
2.29
1.92
1.24
0.43
-0.29
-0.84
-1.12
-1.08
-0.74
-0.19
0.46
0.99
1.18
0.93
0.19
-0.88
-2.04
-3.04
-3.71
-4.04
-4.17
-4.34
-4.67
-5.21
-5.84
-6.40
-6.81
-7.09
-7.40
-7.91
-8.73
-9.77
-10.81
-11.55
-11.73
-11.23
-10.04
-8.31
-6.28
-4.22
-2.30
-0.63
0.80
2.03
3.07
3.95
4.59
5.01
5.21
5.25
5.13
4.83
4.33
3.64
2.88
2.28
2.03
2.18
2.56
2.89
2.94
2.64
2.10
1.55
1.15
0.91
0.76
0.56
0.23
-0.30
-1.08
-2.23
-3.81
-5.78
-7.91
-9.80
-11.03
-11.30
-10.58
-9.02
-6.94
-4.66
-2.45
-0.47
1.18
2.46
3.41
4.09
4.62
5.09
5.51
5.83
5.91
5.70
5.20
4.54
3.88
3.36
3.05
2.89
2.80
2.67
2.48
2.25
1.99
1.71
1.34
0.79
-0.01
-1.03
-2.22
-3.44
-4.62
-5.75
-6.87
-8.00
-9.16
-10.29
-11.24
-11.85
-11.93
-11.31
-9.92
-7.82
-5.25
-2.55
-0.08
1.91
3.36
4.38
5.13
5.75
6.25
6.58
6.72
6.76
6.79
6.94
7.19
7.50
7.75
7.91
7.96
7.89
7.68
7.27
6.58
5.61
4.44
3.18
1.88
0.53
-0.93
-2.51
-4.12
-5.59
-6.73
-7.46
-7.79
-7.89
-7.98
-8.24
-8.79
-9.60
-10.57
-11.45
-11.97
-11.86
-11.00
-9.43
-7.37
-5.11
-2.88
-0.80
1.10
2.77
4.15
5.10
5.59
5.68
5.54
5.38
5.34
5.45
5.61
5.73
5.77
5.77
5.78
5.86
6.03
6.30
6.65
7.01
7.25
7.19
6.71
5.79
4.59
3.36
2.35
1.65
1.19
0.76
0.15
-0.75
-1.91
-3.17
-4.39
-5.50
-6.56
-7.70
-9.03
-10.52
-11.98
-13.04
-13.36
-12.72
-11.14
-8.82
-6.08
-3.19
-0.33
2.39
4.89
7.00
8.56
9.40
9.52
9.03
8.21
7.34
6.67
6.37
6.46
6.88
7.48
8.12
8.66
8.97
8.96
8.61
7.90
6.88
5.61
4.19
2.71
1.28
-0.04
-1.20
-2.24
-3.21
-4.18
-5.19
-6.24
-7.27
-8.24
-9.20
-10.22
-11.36
-12.61
-13.79
-14.60
-14.67
-13.75
-11.76
-8.94
-5.63
-2.29
0.73
3.21
5.04
6.27
6.97
7.31
7.45
7.51
7.56
7.60
7.57
7.42
7.14
6.81
6.50
6.25
6.04
5.81
5.53
5.24
4.98
4.83
4.74
4.62
4.34
3.77
2.86
1.62
0.20
-1.28
-2.62
-3.70
-4.47
-4.98
-5.38
-5.82
-6.45
-7.35
-8.50
-9.84
-11.28
-12.66
-13.81
-14.52
-14.62
-13.93
-12.42
-10.14
-7.30
-4.19
-1.19
1.41
3.43
4.88
5.88
6.66
7.41
8.22
9.08
9.88
10.51
10.83
10.82
10.46
9.85
9.14
8.43
7.82
7.27
6.73
6.10
5.40
4.75
4.28
4.08
4.05
3.99
3.67
3.03
2.14
1.22
0.43
-0.21
-0.82
-1.57
-2.57
-3.83
-5.23
-6.73
-8.30
-9.93
-11.58
-13.09
-14.19
-14.58
-14.03
-12.44
-9.85
-6.53
-2.83
0.80
3.94
6.32
7.85
8.66
8.94
8.85
8.44
7.72
6.75
5.72
4.95
4.70
5.05
5.87
6.87
7.74
8.31
8.55
8.51
8.27
7.86
7.27
6.47
5.45
4.21
2.79
1.22
-0.45
-2.11
-3.65
-4.90
-5.76
-6.23
-6.39
-6.39
-6.44
-6.70
-7.24
-8.05
-9.02
-9.95
-10.64
-10.82
-10.25
-8.76
-6.32
-3.16
0.29
3.47
5.90
7.34
7.84
7.72
7.36
7.17
7.36
8.01
8.98
10.03
10.83
11.13
10.78
9.85
8.60
7.36
6.42
5.96
5.96
6.23
6.55
6.57
5.95
4.37
1.62
-2.21
-6.64
-10.95
-14.32
-16.21
-16.50
-15.56
-14.01
-12.56
-11.72
-11.73
-12.54
-13.84
-15.14
-15.86
-15.45
-13.50
-9.94
-5.00
0.80
6.85
12.55
17.43
21.21
23.74
25.05
25.22
24.44
23.01
21.27
19.57
18.21
17.40
17.10
17.12
17.10
16.66
15.57
13.81
11.47
8.70
5.52
1.83
-2.41
-7.08
-11.69
-15.55
-18.07
-19.09
-19.02
-18.69
-18.88
-20.01
-21.99
-24.46
-27.09
-29.84
-32.80
-35.95
-38.87
-40.73
-40.61
-37.98
-33.02
-26.56
-19.75
-13.53
-8.38
-4.27
-0.93
1.93
4.38
6.34
7.71
8.53
9.02
9.53
10.38
11.69
13.35
15.05
16.47
17.36
17.67
17.52
17.09
16.52
15.80
14.78
13.28
11.23
8.72
6.01
3.47
1.38
-0.16
-1.19
-1.91
-2.50
-3.09
-3.81
-4.73
-5.94
-7.52
-9.47
-11.66
-13.74
-15.29
-15.90
-15.29
-13.44
-10.54
-6.98
-3.19
0.43
3.58
6.12
8.01
9.28
10.02
10.36
10.44
10.42
10.45
10.61
10.89
11.22
11.53
11.76
11.91
12.01
12.08
12.06
11.87
11.43
10.72
9.79
8.79
7.87
7.07
6.37
5.62
4.70
3.50
2.03
0.41
-1.25
-2.83
-4.35
-5.93
-7.72
-9.79
-12.09
-14.44
-16.52
-18.01
-18.62
-18.21
-16.73
-14.28
-11.08
-7.48
-3.83
-0.43
2.50
4.87
6.69
8.02
8.90
9.41
9.61
9.62
9.58
9.55
9.60
9.63
9.52
9.16
8.51
7.67
6.77
5.94
5.22
4.55
3.88
3.18
2.54
2.10
1.93
1.94
1.88
1.48
0.58
-0.77
-2.23
-3.43
-4.14
-4.37
-4.43
-4.72
-5.52
-6.85
-8.52
-10.20
-11.58
-12.43
-12.64
-12.17
-10.99
-9.13
-6.69
-3.88
-0.99
1.71
4.05
5.96
7.49
8.67
9.48
9.89
9.88
9.53
9.00
8.49
8.09
7.82
7.63
7.45
7.23
6.96
6.59
6.08
5.39
4.57
3.79
3.22
2.95
2.89
2.79
2.35
1.43
0.13
-1.28
-2.56
-3.68
-4.84
-6.25
-8.05
-10.12
-12.21
-14.05
-15.49
-16.49
-17.01
-16.96
-16.12
-14.35
-11.64
-8.28
-4.68
-1.32
1.49
3.67
5.36
6.78
8.06
9.24
10.13
10.60
10.59
10.22
9.79
9.58
9.75
10.14
10.49
10.49
10.05
9.33
8.61
8.15
7.95
7.78
7.26
6.13
4.35
2.15
-0.08
-2.01
-3.45
-4.46
-5.24
-6.06
-7.09
-8.43
-10.07
-11.96
-13.94
-15.80
-17.25
-17.95
-17.68
-16.43
-14.42
-12.05
-9.75
-7.79
-6.22
-4.92
-3.69
-2.39
-0.96
0.55
2.04
3.42
4.60
5.49
6.03
6.24
6.23
6.17
6.19
6.26
6.27
6.11
5.72
5.24
4.88
4.76
4.83
4.82
4.42
3.49
2.13
0.65
-0.64
-1.58
-2.25
-2.87
-3.67
-4.77
-6.15
-7.72
-9.42
-11.22
-13.05
-14.72
-15.93
-16.29
-15.56
-13.78
-11.29
-8.61
-6.25
-4.46
-3.26
-2.45
-1.81
-1.24
-0.76
-0.47
-0.41
-0.55
-0.75
-0.84
-0.61
0.08
1.27
2.87
4.67
6.33
7.59
8.31
8.56
8.56
8.60
8.81
9.20
9.67
10.05
10.24
10.23
10.00
9.59
9.06
8.48
7.97
7.63
7.40
7.11
6.45
5.18
3.19
0.60
-2.33
-5.27
-7.90
-9.98
-11.30
-11.74
-11.18
-9.63
-7.22
-4.27
-1.16
1.72
4.07
5.80
6.94
7.60
7.91
7.96
7.82
7.54
7.23
7.02
7.07
7.42
7.97
8.51
8.79
8.68
8.21
7.47
6.63
5.74
4.80
3.72
2.47
1.08
-0.28
-1.45
-2.32
-2.89
-3.24
-3.50
-3.80
-4.24
-4.84
-5.64
-6.64
-7.85
-9.25
-10.76
-12.21
-13.26
-13.61
-12.98
-11.34
-8.87
-5.91
-2.85
-0.06
2.21
3.83
4.79
5.23
5.36
5.39
5.48
5.65
5.80
5.81
5.61
5.20
4.68
4.16
3.70
3.32
3.00
2.75
2.57
2.42
2.14
1.58
0.57
-0.89
-2.64
-4.44
-6.02
-7.23
-8.00
-8.46
-8.76
-9.15
-9.86
-11.01
-12.66
-14.65
-16.68
-18.31
-19.13
-18.87
-17.46
-15.07
-12.00
-8.63
-5.33
-2.35
0.19
2.25
3.95
5.42
6.83
8.27
9.68
10.89
11.69
11.94
11.58
10.73
9.60
8.42
7.45
6.89
6.83
7.24
7.91
8.55
8.82
8.47
7.37
5.58
3.30
0.80
-1.64
-3.83
-5.62
-6.98
-7.99
-8.82
-9.73
-10.99
-12.70
-14.80
-16.99
-18.85
-19.98
-20.06
-19.11
-17.28
-14.89
-12.26
-9.63
-7.13
-4.80
-2.59
-0.43
1.66
3.64
5.37
6.72
7.61
8.08
8.23
8.23
8.18
8.13
8.07
7.97
7.82
7.65
7.48
7.36
7.27
7.14
6.91
6.49
5.79
4.73
3.35
1.71
-0.04
-1.72
-3.24
-4.56
-5.73
-6.82
-7.93
-9.14
-10.57
-12.34
-14.51
-16.95
-19.33
-21.10
-21.68
-20.69
-18.11
-14.30
-9.86
-5.44
-1.52
1.68
4.17
6.08
7.55
8.66
9.44
9.85
9.91
9.72
9.47
9.35
9.50
9.88
10.30
10.53
10.41
9.94
9.27
8.58
8.01
7.59
7.21
6.69
5.90
4.74
3.23
1.47
-0.41
-2.23
-3.89
-5.37
-6.69
-7.99
-9.40
-11.00
-12.87
-15.03
-17.48
-20.12
-22.74
-24.87
-26.00
-25.63
-23.62
-20.38
-16.78
-13.91
-12.68
-13.40
-15.75
-18.99
-22.29
-25.08
-27.07
-28.16
-28.23
-27.05
-24.41
-20.32
-15.14
-9.57
-4.36
-0.11
3.00
5.19
6.94
8.87
11.46
14.93
19.22
23.94
28.53
32.46
35.32
37.01
37.67
37.55
36.95
36.03
34.82
33.31
31.44
29.19
26.54
23.50
20.13
16.56
12.96
9.62
6.83
4.86
3.88
3.92
4.83
6.32
8.02
9.58
10.77
11.54
11.97
12.17
12.24
12.17
11.89
11.38
10.72
10.06
9.58
9.37
9.35
9.36
9.24
8.95
8.56
8.20
7.93
7.64
7.08
6.03
4.35
2.12
-0.44
-3.04
-5.50
-7.71
-9.63
-11.19
-12.32
-12.95
-13.08
-12.88
-12.56
-12.37
-12.41
-12.59
-12.71
-12.46
-11.65
-10.20
-8.25
-6.01
-3.70
-1.44
0.71
2.75
4.69
6.41
7.83
8.81
9.34
9.46
9.29
8.95
8.53
8.15
7.78
7.45
7.12
6.76
6.37
5.96
5.59
5.25
4.96
4.61
4.12
3.42
2.49
1.42
0.34
-0.62
-1.47
-2.26
-3.15
-4.24
-5.59
-7.13
-8.68
-10.10
-11.31
-12.38
-13.40
-14.46
-15.53
-16.44
-16.90
-16.60
-15.34
-13.11
-10.15
-6.82
-3.50
-0.48
2.13
4.32
6.14
7.60
8.66
9.27
9.50
9.49
9.43
9.50
9.72
10.05
10.37
10.59
10.66
10.59
10.38
9.96
9.30
8.34
7.14
5.77
4.35
2.97
1.66
0.39
-0.84
-2.05
-3.24
-4.38
-5.47
-6.44
-7.21
-7.66
-7.68
-7.28
-6.66
-6.22
-6.40
-7.49
-9.45
-11.89
-14.21
-15.77
-16.19
-15.38
-13.56
-11.10
-8.37
-5.64
-3.04
-0.60
1.71
3.86
5.82
7.45
8.67
9.42
9.77
9.86
9.84
9.84
9.87
9.85
9.66
9.17
8.37
7.27
5.99
4.61
3.31
2.20
1.42
1.05
1.10
1.45
1.92
2.38
2.67
2.70
2.40
1.68
0.50
-1.13
-3.08
-5.12
-6.94
-8.31
-9.16
-9.58
-9.80
-10.08
-10.62
-11.45
-12.50
-13.57
-14.36
-14.58
-14.03
-12.63
-10.48
-7.85
-5.02
-2.26
0.30
2.61
4.67
6.44
7.90
9.00
9.70
10.01
9.97
9.65
9.16
8.63
8.27
8.27
8.72
9.52
10.45
11.14
11.34
11.00
10.25
9.32
8.41
7.52
6.55
5.39
3.97
2.37
0.72
-0.86
-2.35
-3.79
-5.29
-6.88
-8.58
-10.40
-12.35
-14.47
-16.78
-19.23
-21.58
-23.50
-24.53
-24.35
-22.86
-20.20
-16.67
-12.76
-8.83
-5.22
-2.15
0.30
2.13
3.44
4.44
5.32
6.18
7.03
7.76
8.24
8.48
8.56
8.67
8.94
9.33
9.64
9.68
9.26
8.40
7.26
6.03
4.87
3.85
2.94
2.05
1.14
0.13
-0.98
-2.18
-3.40
-4.59
-5.68
-6.66
-7.62
-8.68
-9.98
-11.61
-13.55
-15.73
-17.96
-19.99
-21.52
-22.24
-21.90
-20.36
-17.70
-14.15
-10.17
-6.21
-2.68
0.16
2.22
3.64
4.62
5.36
6.03
6.63
7.13
7.46
7.63
7.66
7.65
7.63
7.62
7.60
7.56
7.51
7.52
7.61
7.75
7.84
7.73
7.33
6.60
5.56
4.31
2.93
1.49
0.07
-1.31
-2.62
-3.81
-4.89
-5.89
-6.90
-8.01
-9.30
-10.83
-12.62
-14.69
-16.97
-19.27
-21.31
-22.65
-22.94
-21.96
-19.74
-16.52
-12.72
-8.73
-4.88
-1.43
1.47
3.72
5.30
6.31
6.93
7.40
7.91
8.51
9.15
9.76
10.24
10.61
10.94
11.25
11.58
11.88
12.06
12.01
11.74
11.24
10.59
9.86
9.08
8.30
7.49
6.64
5.78
4.97
4.24
3.57
2.85
1.97
0.79
-0.69
-2.42
-4.20
-5.87
-7.32
-8.57
-9.75
-10.98
-12.26
-13.35
-13.80
-12.96
-10.41
-6.04
-0.31
5.98
11.91
16.89
20.75
23.98
27.39
31.69
36.99
42.72
47.86
51.59
53.70
54.63
55.44
57.43
61.31
66.78
72.70
77.67
81.06
83.32
85.23
87.45
89.64
89.91
85.39
73.85
55.26
32.32
9.27
-11.07
-28.28
-44.38
-62.13
-82.97
-105.98
-129.12
-151.96
-173.96
-197.88
-226.59
-258.19
-283.78
-291.48
-273.69
-232.29
-178.22
-126.14
-87.91
-67.53
-61.21
-61.57
-62.77
-62.95
-63.55
-66.57
-72.42
-79.86
-86.24
-89.15
-88.02
-84.25
-80.53
-79.32
-81.67
-86.98
-93.63
-99.62
-103.03
-103.07
-100.14
-95.38
-89.88
-84.03
-77.21
-67.93
-56.87
-43.78
-28.48
-11.15
7.67
27.28
46.95
66.08
84.28
101.44
118.18
135.32
153.80
174.73
199.26
228.16
261.19
296.35
329.71
356.35
371.35
371.44
356.06
327.58
290.42
249.71
210.07
174.84
146.18
124.97
110.97
102.95
98.92
96.46
93.21
87.27
77.47
63.61
46.54
28.23
11.44
-1.01
-7.35
-7.80
-4.91
-2.64
-4.68
-12.58
-25.08
-38.64
-49.04
-53.18
-50.29
-41.98
-31.31
-21.44
-14.20
-10.27
-9.41
-10.87
-13.59
-16.35
-17.92
-17.29
-13.98
-7.68
0.89
10.07
17.93
23.08
25.27
25.48
25.71
28.37
36.08
49.54
66.70
82.91
92.57
91.14
76.91
51.63
15.66
-25.87
-65.54
-96.72
-116.30
-125.15
-126.08
-121.71
-113.70
-103.18
-90.65
-77.28
-64.80
-54.70
-47.47
-42.36
-37.90
-32.75
-26.51
-19.15
-11.73
-6.02
-3.68
-5.49
-11.01
-18.81
-27.27
-35.44
-42.57
-48.77
-54.79
-61.61
-69.96
-80.14
-91.97
-104.61
-116.67
-125.61
-128.64
-123.85
-111.22
-92.81
-72.28
-53.67
-37.90
-26.21
-18.36
-13.12
-9.12
-5.61
-2.47
0.12
2.15
3.99
5.86
8.06
10.57
13.02
14.74
15.29
14.56
12.90
10.98
9.24
8.17
8.06
8.90
10.40
12.22
14.06
15.79
17.49
19.14
20.90
22.81
24.76
26.42
27.43
27.57
26.89
25.66
24.21
22.89
21.79
20.79
19.63
18.08
16.09
13.81
11.50
9.35
7.45
5.69
3.92
1.95
-0.28
-2.74
-5.24
-7.54
-9.44
-10.85
-11.84
-12.63
-13.48
-14.61
-16.17
-18.15
-20.38
-22.54
-24.26
-25.08
-24.64
-22.68
-19.25
-14.64
-9.43
-4.25
0.33
4.04
6.89
9.13
11.06
12.90
14.69
16.30
17.60
18.46
18.86
18.85
18.49
17.85
17.00
16.05
15.13
14.39
13.90
13.64
13.49
13.29
12.90
12.29
11.46
10.45
9.30
8.04
6.68
5.26
3.76
2.16
0.45
-1.28
-2.91
-4.29
-5.32
-6.07
-6.78
-7.76
-9.29
-11.45
-14.11
-16.87
-19.23
-20.66
-20.80
-19.46
-16.75
-12.95
-8.51
-3.98
0.27
3.93
6.92
9.27
11.10
12.52
13.55
14.18
14.35
14.04
13.36
12.55
11.88
11.55
11.56
11.76
11.91
11.88
11.73
11.60
11.63
11.77
11.78
11.34
10.23
8.50
6.37
4.17
2.11
0.27
-1.43
-3.11
-4.80
-6.47
-8.05
-9.42
-10.53
-11.30
-11.72
-11.79
-11.68
-11.67
-12.11
-13.29
-15.30
-17.92
-20.72
-23.19
-24.84
-25.36
-24.62
-22.64
-19.57
-15.63
-11.19
-6.67
-2.49
1.02
3.71
5.66
7.11
8.33
9.56
10.88
12.24
13.54
14.59
15.23
15.38
15.00
14.22
13.28
12.44
11.95
11.94
12.32
12.77
12.88
12.31
10.96
9.05
7.00
5.28
4.09
3.42
2.95
2.35
1.40
0.05
-1.57
-3.32
-5.12
-6.94
-8.75
-10.46
-11.96
-13.22
-14.29
-15.43
-16.93
-18.98
-21.53
-24.19
-26.30
-27.13
-26.17
-23.31
-18.88
-13.57
-8.16
-3.27
0.73
3.83
6.17
7.96
9.34
10.41
11.19
11.65
11.84
11.79
11.60
11.39
11.24
11.16
11.12
11.00
10.73
10.23
9.50
8.62
7.62
6.60
5.63
4.73
3.94
3.25
2.63
1.96
1.15
0.07
-1.29
-2.86
-4.51
-6.08
-7.50
-8.79
-10.10
-11.59
-13.44
-15.72
-18.40
-21.34
-24.26
-26.78
-28.37
-28.55
-26.94
-23.56
-18.74
-13.15
-7.50
-2.35
2.00
5.54
8.39
10.68
12.44
13.68
14.36
14.50
14.22
13.64
12.94
12.19
11.47
10.79
10.16
9.62
9.22
9.01
8.95
8.93
8.77
8.35
7.62
6.72
5.86
5.18
4.68
4.18
3.42
2.23
0.61
-1.26
-3.15
-4.88
-6.39
-7.71
-8.89
-9.98
-10.99
-11.98
-13.01
-14.19
-15.52
-16.88
-18.00
-18.53
-18.18
-16.82
-14.50
-11.42
-7.90
-4.30
-0.98
1.82
4.02
5.77
7.31
8.85
10.42
11.85
12.84
13.17
12.85
12.16
11.45
11.08
11.13
11.43
11.68
11.63
11.19
10.46
9.63
8.83
8.10
7.35
6.48
5.41
4.13
2.68
1.11
-0.51
-2.04
-3.27
-4.04
-4.29
-4.19
-4.10
-4.42
-5.45
-7.16
-9.36
-11.79
-14.27
-16.72
-19.02
-20.91
-21.91
-21.56
-19.65
-16.39
-12.38
-8.32
-4.71
-1.73
0.75
2.92
4.87
6.51
7.69
8.35
8.61
8.71
8.87
9.19
9.61
10.01
10.26
10.31
10.18
9.97
9.72
9.45
9.13
8.70
8.11
7.38
6.50
5.37
3.93
2.12
0.00
-2.20
-4.20
-5.81
-6.94
-7.74
-8.53
-9.57
-11.02
-12.83
-14.76
-16.49
-17.71
-18.14
-17.54
-15.79
-12.90
-9.09
-4.76
-0.42
3.45
6.47
8.48
9.55
9.93
9.88
9.66
9.42
9.21
9.08
9.01
9.03
9.17
9.42
9.70
9.81
9.57
8.84
7.64
6.16
4.66
3.40
2.50
1.97
1.65
1.35
0.91
0.22
-0.71
-1.79
-2.87
-3.81
-4.54
-5.13
-5.74
-6.59
-7.75
-9.05
-10.11
-10.48
-9.83
-8.14
-5.64
-2.71
0.32
3.30
6.19
8.93
11.35
13.19
14.31
14.73
14.75
14.77
15.10
15.82
16.71
17.45
17.71
17.29
16.23
14.66
12.83
10.96
9.23
7.73
6.43
5.24
4.06
2.83
1.56
0.31
-0.89
-2.02
-3.14
-4.27
-5.42
-6.53
-7.53
-8.44
-9.33
-10.28
-11.30
-12.21
-12.70
-12.44
-11.19
-8.92
-5.85
-2.38
1.00
3.89
6.00
7.20
7.57
7.31
6.70
6.02
5.51
5.23
5.15
5.14
5.13
5.09
5.07
5.11
5.18
5.16
4.90
4.32
3.51
2.65
2.01
1.72
1.75
1.89
1.89
1.51
0.69
-0.56
-2.17
-3.97
-5.82
-7.44
-8.45
-8.44
-7.17
-4.62
-1.13
2.67
6.19
8.92
10.76
11.83
12.46
12.90
13.27
13.54
13.62
13.47
13.07
12.40
11.45
10.14
8.50
6.65
4.88
3.47
2.60
2.15
1.84
1.30
0.30
-1.20
-3.02
-4.95
-6.89
-8.85
-10.87
-12.88
-14.71
-16.11
-16.98
-17.40
-17.68
-18.14
-18.91
-19.91
-20.79
-21.21
-21.00
-20.19
-19.02
-17.76
-16.53
-15.37
-14.24
-13.17
-12.24
-11.55
-11.14
-10.92
-10.71
-10.26
-9.38
-8.00
-6.19
-4.11
-2.04
-0.20
1.17
1.91
2.02
1.61
0.90
0.12
-0.53
-1.01
-1.41
-1.92
-2.69
-3.78
-5.05
-6.33
-7.41
-8.15
-8.57
-8.73
-8.76
-8.72
-8.63
-8.54
-8.49
-8.52
-8.59
-8.60
-8.37
-7.73
-6.57
-4.91
-2.94
-0.93
0.84
2.21
3.21
4.01
4.86
5.90
7.12
8.33
9.28
9.75
9.71
9.25
8.63
8.07
7.71
7.58
7.59
7.63
7.56
7.32
6.96
6.58
6.34
6.28
6.37
6.46
6.39
6.10
5.57
4.86
3.94
2.78
1.33
-0.34
-2.01
-3.39
-4.25
-4.55
-4.51
-4.44
-4.67
-5.39
-6.59
-8.12
-9.79
-11.36
-12.60
-13.27
-13.17
-12.19
-10.45
-8.24
-5.93
-3.89
-2.37
-1.42
-0.87
-0.46
0.14
1.05
2.26
3.55
4.66
5.43
5.81
5.92
5.79
5.46
4.84
3.96
2.98
2.22
1.98
2.37
3.20
4.03
4.44
4.22
3.49
2.58
1.86
1.50
1.42
1.37
1.10
0.48
-0.45
-1.51
-2.54
-3.41
-4.14
-4.77
-5.38
-6.01
-6.68
-7.36
-8.06
-8.72
-9.22
-9.40
-9.05
-8.11
-6.64
-4.85
-2.94
-1.09
0.72
2.47
4.14
5.58
6.57
6.96
6.74
6.11
5.36
4.74
4.40
4.36
4.59
5.03
5.59
6.18
6.65
6.92
6.97
6.84
6.61
6.31
5.94
5.43
4.77
3.98
3.17
2.42
1.74
1.08
0.38
-0.42
-1.30
-2.23
-3.22
-4.29
-5.47
-6.78
-8.13
-9.35
-10.19
-10.44
-9.98
-8.87
-7.29
-5.51
-3.81
-2.37
-1.25
-0.39
0.33
1.01
1.69
2.32
2.85
3.19
3.34
3.31
3.20
3.14
3.24
3.55
4.01
4.46
4.76
4.83
4.73
4.58
4.51
4.51
4.47
4.27
3.86
3.28
2.69
2.22
1.85
1.52
1.08
0.44
-0.40
-1.37
-2.38
-3.36
-4.27
-5.09
-5.75
-6.14
-6.10
-5.51
-4.33
-2.70
-0.90
0.67
1.67
1.98
1.72
1.26
1.03
1.31
2.10
3.14
4.06
4.55
4.54
4.13
3.58
3.13
2.89
2.87
3.00
3.18
3.38
3.58
3.76
3.81
3.61
2.96
1.78
0.18
-1.62
-3.32
-4.67
-5.54
-6.01
-6.25
-6.51
-6.99
-7.77
-8.77
-9.74
-10.37
-10.35
-9.52
-7.92
-5.79
-3.47
-1.28
0.62
2.17
3.39
4.29
4.85
5.03
4.86
4.43
3.93
3.52
3.33
3.40
3.65
3.95
4.19
4.32
4.31
4.18
3.94
3.59
3.14
2.56
1.86
1.00
-0.01
-1.21
-2.58
-4.14
-5.83
-7.51
-9.02
-10.12
-10.57
-10.17
-8.89
-6.83
-4.33
-1.79
0.39
1.98
2.93
3.43
3.71
3.95
4.25
4.55
4.76
4.81
4.68
4.46
4.24
4.08
3.98
3.86
3.60
3.14
2.52
1.80
1.14
0.66
0.35
0.13
-0.17
-0.72
-1.57
-2.72
-4.06
-5.49
-6.93
-8.34
-9.67
-10.84
-11.74
-12.22
-12.15
-11.52
-10.33
-8.71
-6.80
-4.71
-2.55
-0.37
1.73
3.65
5.23
6.35
6.95
7.08
6.98
6.92
7.08
7.48
7.98
8.34
8.40
8.06
7.43
6.63
5.76
4.88
4.01
3.20
2.50
1.97
1.55
1.13
0.56
-0.26
-1.30
-2.39
-3.32
-3.96
-4.32
-4.45
-4.50
-4.54
-4.65
-4.92
-5.45
-6.25
-7.22
-8.08
-8.42
-7.96
-6.60
-4.60
-2.41
-0.51
0.86
1.68
2.13
2.43
2.68
2.90
3.07
3.24
3.47
3.80
4.20
4.58
4.86
4.98
5.06
5.26
5.65
6.23
6.85
7.36
7.64
7.65
7.40
6.95
6.28
5.41
4.33
3.11
1.88
0.77
-0.09
-0.71
-1.15
-1.59
-2.23
-3.17
-4.39
-5.76
-7.12
-8.34
-9.42
-10.35
-11.15
-11.70
-11.71
-10.86
-8.92
-5.98
-2.42
1.15
4.16
6.33
7.61
8.23
8.40
8.25
7.75
6.83
5.54
4.03
2.63
1.58
1.02
0.94
1.24
1.79
2.46
3.15
3.71
4.05
4.10
3.82
3.21
2.27
1.01
-0.52
-2.24
-3.98
-5.51
-6.59
-7.10
-6.97
-6.33
-5.38
-4.42
-3.75
-3.68
-4.37
-5.84
-7.89
-10.18
-12.39
-14.24
-15.64
-16.63
-17.37
-18.02
-18.74
-19.67
-20.92
-22.52
-24.45
-26.61
-28.92
-31.36
-33.99
-37.04
-40.69
-45.00
-49.90
-55.15
-60.45
-65.60
-70.52
-75.34
-80.34
-85.83
-91.95
-98.53
-104.91
-110.02
-112.54
-111.24
-105.31
-94.70
-80.18
-63.08
-44.81
-26.36
-7.98
10.74
30.39
51.34
73.28
95.25
115.86
133.68
147.54
156.64
160.70
159.91
155.11
147.62
139.14
131.22
124.85
120.14
116.43
112.64
107.78
101.38
93.55
84.91
76.24
68.16
60.89
54.15
47.33
39.85
31.61
23.14
15.48
9.70
6.31
4.97
4.62
4.04
2.50
0.00
-2.89
-5.67
-8.25
-11.04
-14.53
-18.72
-22.89
-25.91
-26.77
-25.31
-22.30
-19.17
-17.34
-17.50
-19.39
-21.98
-23.99
-24.41
-22.88
-19.74
-15.73
-11.79
-8.66
-6.80
-6.25
-6.71
-7.64
-8.39
-8.39
-7.38
-5.51
-3.34
-1.59
-0.84
-1.19
-2.20
-3.09
-3.10
-1.97
-0.08
1.65
2.29
1.27
-1.13
-4.07
-6.51
-7.80
-8.02
-7.89
-8.25
-9.51
-11.41
-13.09
-13.73
-13.10
-11.82
-11.06
-11.86
-14.49
-18.23
-21.73
-23.76
-23.92
-22.77
-21.48
-21.00
-21.43
-21.91
-21.15
-18.25
-13.37
-7.74
-3.14
-1.00
-1.72
-4.50
-7.75
-9.74
-9.38
-6.45
-1.63
3.81
8.52
11.41
12.01
10.61
8.09
5.60
4.06
3.79
4.34
4.78
4.20
2.23
-0.71
-3.63
-5.39
-5.21
-3.08
0.35
3.98
6.57
7.14
5.02
-0.02
-7.69
-17.14
-26.96
-35.47
-41.04
-42.69
-40.39
-35.15
-28.69
-22.82
-18.81
-17.10
-17.20
-18.11
-18.80
-18.48
-16.80
-13.82
-9.82
-5.33
-1.03
2.29
3.98
3.80
2.14
-0.05
-1.65
-1.85
-0.55
1.61
3.59
4.45
3.67
1.32
-2.24
-6.57
-11.32
-16.26
-21.14
-25.57
-29.13
-31.46
-32.46
-32.34
-31.49
-30.27
-28.85
-27.05
-24.45
-20.65
-15.49
-9.16
-2.26
4.49
10.39
15.11
18.57
20.93
22.45
23.34
23.92
24.65
26.18
29.00
33.05
37.34
40.21
40.01
36.16
29.97
24.65
24.16
31.45
47.12
68.91
92.54
113.37
127.64
132.96
127.82
111.10
82.46
43.49
-1.15
-44.08
-77.35
-95.69
-98.83
-91.38
-80.14
-70.26
-63.03
-56.32
-47.63
-37.16
-28.94
-28.68
-40.06
-61.66
-86.90
-107.17
-116.19
-112.94
-101.62
-88.98
-80.52
-78.15
-80.20
-83.25
-84.63
-83.71
-81.53
-79.57
-78.54
-78.24
-78.01
-77.47
-76.77
-76.15
-75.40
-73.55
-69.22
-61.35
-49.95
-36.19
-21.93
-8.68
3.12
14.24
25.96
38.96
52.56
64.74
73.10
76.06
73.75
67.83
60.63
54.14
49.40
46.89
47.13
51.02
59.55
73.03
90.56
110.16
129.59
147.30
162.90
176.94
190.32
203.60
216.82
229.50
241.01
250.87
259.01
265.77
271.56
276.16
278.16
274.93
263.63
242.58
212.44
176.18
137.73
100.23
64.97
31.65
-0.26
-30.15
-56.09
-75.78
-88.05
-93.60
-94.73
-94.01
-93.17
-92.61
-91.93
-90.79
-89.39
-88.45
-88.60
-89.77
-90.98
-90.56
-86.83
-79.09
-68.15
-56.34
-46.79
-42.09
-43.06
-48.32
-54.88
-59.44
-59.89
-55.99
-49.12
-41.38
-34.52
-29.43
-26.14
-24.30
-23.69
-24.26
-26.00
-28.64
-31.48
-33.54
-33.91
-32.04
-27.95
-22.19
-15.63
-9.23
-3.80
0.20
2.80
4.62
6.71
10.22
15.84
23.35
31.51
38.35
42.06
41.88
38.58
34.35
31.89
33.34
39.47
49.33
60.68
70.83
77.29
78.30
73.07
61.94
46.56
29.91
15.88
8.05
8.03
13.97
20.48
20.40
7.89
-18.55
-54.92
-93.19
-124.66
-143.62
-149.35
-145.55
-137.76
-130.45
-125.29
-121.36
-116.83
-110.68
-103.58
-97.27
-93.31
-91.95
-91.95
-91.19
-87.98
-81.86
-73.86
-65.79
-59.20
-54.57
-51.09
-47.26
-41.62
-33.59
-23.77
-13.71
-5.22
0.27
2.30
1.48
-0.83
-3.09
-4.18
-3.72
-2.08
-0.05
1.62
2.59
3.01
3.42
4.35
6.02
8.19
10.31
11.71
11.94
10.89
8.79
6.02
3.01
0.10
-2.53
-4.77
-6.64
-8.20
-9.69
-11.36
-13.49
-16.04
-18.67
-20.74
-21.52
-20.54
-17.79
-13.73
-9.11
-4.68
-0.92
2.03
4.23
5.85
6.99
7.70
7.96
7.71
6.91
5.50
3.55
1.16
-1.39
-3.81
-5.86
-7.50
-8.86
-10.12
-11.34
-12.41
-13.10
-13.27
-12.90
-12.10
-11.03
-9.69
-8.00
-5.92
-3.67
-1.79
-0.87
-1.36
-3.10
-5.36
-7.04
-7.17
-5.26
-1.45
3.66
9.32
14.85
19.77
23.73
26.49
27.90
27.99
27.09
25.73
24.58
24.17
24.66
25.80
27.09
28.01
28.30
28.14
27.95
28.19
29.01
30.08
30.71
30.19
28.07
24.44
19.77
14.70
9.73
5.09
0.77
-3.36
-7.39
-11.41
-15.51
-19.81
-24.47
-29.43
-34.41
-38.79
-41.82
-42.82
-41.53
-38.24
-33.75
-29.17
-25.56
-23.60
-23.43
-24.62
-26.44
-28.06
-28.86
-28.51
-26.96
-24.32
-20.79
-16.50
-11.57
-6.10
-0.24
5.77
11.64
17.05
21.73
25.55
28.55
30.93
32.91
34.62
35.94
36.61
36.33
34.87
32.22
28.52
23.99
18.87
13.50
8.26
3.62
0.12
-1.77
-1.76
0.17
3.71
8.35
13.38
18.07
21.88
24.50
26.04
26.83
27.32
27.80
28.27
28.52
28.19
27.10
25.33
23.21
21.15
19.40
17.95
16.60
15.10
13.34
11.45
9.70
8.34
7.40
6.68
5.87
4.68
3.01
0.87
-1.61
-4.41
-7.66
-11.50
-15.97
-20.79
-25.33
-28.69
-29.95
-28.46
-24.07
-17.27
-9.03
-0.53
7.12
13.21
17.54
20.31
21.96
22.86
23.23
23.06
22.32
21.10
19.62
18.28
17.42
17.18
17.47
18.04
18.57
18.83
18.68
18.08
17.02
15.50
13.50
11.04
8.23
5.22
2.18
-0.82
-3.82
-7.00
-10.57
-14.60
-18.83
-22.65
-25.13
-25.43
-23.10
-18.32
-11.83
-4.73
2.00
7.70
12.13
15.36
17.59
18.95
19.61
19.69
19.43
19.07
18.81
18.70
18.64
18.44
18.00
17.32
16.50
15.71
14.98
14.18
13.07
11.35
8.84
5.55
1.73
-2.31
-6.24
-9.85
-13.07
-15.92
-18.60
-21.30
-24.27
-27.59
-31.14
-34.45
-36.79
-37.38
-35.60
-31.33
-25.00
-17.51
-9.95
-3.20
2.22
6.27
9.21
11.43
13.27
14.92
16.44
17.75
18.78
19.49
19.94
20.21
20.43
20.67
20.98
21.26
21.38
21.19
20.56
19.36
17.48
14.90
11.66
7.94
4.04
0.26
-3.19
-6.32
-9.32
-12.51
-16.22
-20.54
-25.23
-29.68
-32.94
-34.10
-32.50
-28.05
-21.29
-13.20
-4.95
2.49
8.56
13.21
16.67
19.30
21.34
22.87
23.84
24.21
23.98
23.32
22.44
21.60
20.93
20.48
20.20
19.96
19.60
19.00
18.03
16.58
14.57
11.94
8.71
4.99
1.00
-2.99
-6.70
-10.02
-13.00
-15.96
-19.25
-23.10
-27.33
-31.29
-34.03
-34.62
-32.48
-27.74
-21.13
-13.75
-6.64
-0.43
4.75
9.14
13.07
16.70
19.96
22.61
24.48
25.55
26.03
26.25
26.49
26.82
27.15
27.26
26.97
26.24
25.14
23.85
22.50
21.14
19.69
18.02
15.94
13.35
10.26
6.81
3.27
-0.13
-3.18
-5.85
-8.17
-10.29
-12.36
-14.51
-16.88
-19.64
-22.90
-26.67
-30.67
-34.28
-36.66
-37.00
-34.75
-29.86
-22.89
-14.83
-6.77
0.38
6.16
10.58
13.95
16.59
18.61
19.92
20.33
19.80
18.57
17.08
15.84
15.17
15.15
15.63
16.33
16.97
17.34
17.29
16.73
15.59
13.90
11.78
9.36
6.76
4.08
1.35
-1.41
-4.16
-6.85
-9.46
-11.97
-14.38
-16.67
-18.74
-20.52
-22.09
-23.66
-25.58
-28.13
-31.31
-34.70
-37.45
-38.59
-37.35
-33.48
-27.37
-19.90
-12.15
-4.99
1.05
5.90
9.73
12.78
15.15
16.82
17.76
17.95
17.57
16.87
16.17
15.67
15.48
15.48
15.48
15.25
14.67
13.81
12.88
12.08
11.46
10.82
9.81
8.08
5.56
2.46
-0.73
-3.55
-5.71
-7.22
-8.40
-9.64
-11.42
-14.18
-18.19
-23.40
-29.30
-34.87
-38.80
-39.95
-37.79
-32.63
-25.49
-17.60
-10.02
-3.26
2.55
7.51
11.60
14.70
16.68
17.54
17.53
17.06
16.54
16.14
15.90
15.67
15.34
14.88
14.35
13.85
13.40
13.03
12.71
12.44
12.12
11.63
10.75
9.19
6.80
3.60
-0.11
-3.93
-7.46
-10.53
-13.14
-15.57
-18.12
-21.06
-24.54
-28.42
-32.27
-35.35
-36.81
-35.88
-32.19
-26.00
-18.08
-9.53
-1.43
5.50
10.93
14.82
17.37
18.80
19.35
19.31
18.97
18.62
18.49
18.71
19.18
19.73
20.06
19.92
19.18
17.88
16.20
14.42
12.76
11.29
9.92
8.37
6.40
3.91
0.98
-2.13
-5.10
-7.64
-9.64
-11.15
-12.41
-13.73
-15.42
-17.68
-20.61
-24.06
-27.59
-30.51
-31.95
-31.21
-27.97
-22.50
-15.53
-8.04
-0.90
5.33
10.42
14.37
17.22
18.98
19.68
19.47
18.70
17.81
17.18
17.03
17.35
17.97
18.62
19.08
19.19
18.91
18.29
17.44
16.45
15.33
13.94
12.09
9.64
6.54
2.98
-0.74
-4.28
-7.37
-9.92
-12.02
-13.87
-15.76
-17.98
-20.76
-24.17
-28.05
-31.89
-34.92
-36.25
-35.12
-31.24
-24.88
-16.88
-8.36
-0.42
6.17
11.09
14.39
16.30
17.08
16.87
15.83
14.19
12.33
10.67
9.57
9.16
9.34
9.82
10.29
10.58
10.65
10.61
10.56
10.52
10.30
9.64
8.23
5.93
2.81
-0.78
-4.33
-7.37
-9.62
-11.11
-12.13
-13.13
-14.54
-16.63
-19.47
-22.86
-26.27
-28.91
-29.91
-28.57
-24.66
-18.54
-11.04
-3.31
3.62
9.05
12.78
15.03
16.19
16.70
16.85
16.76
16.38
15.69
14.66
13.46
12.32
11.39
10.77
10.33
9.92
9.39
8.70
7.86
6.87
5.60
3.96
1.94
-0.24
-2.24
-3.80
-4.88
-5.82
-7.10
-9.13
-12.01
-15.51
-19.18
-22.55
-25.21
-26.72
-26.60
-24.27
-19.34
-11.83
-2.31
8.14
18.25
26.92
33.47
37.69
39.81
40.29
39.65
38.50
37.34
36.57
36.43
36.99
38.11
39.55
41.15
42.78
44.49
46.31
48.18
49.78
50.54
49.71
46.59
40.69
31.91
20.51
7.07
-7.66
-22.85
-37.76
-51.87
-65.02
-77.30
-88.99
-100.14
-110.38
-118.85
-124.42
-126.20
-123.87
-117.95
-109.65
-100.51
-91.88
-84.64
-79.00
-74.68
-71.06
-67.51
-63.43
-58.39
-52.13
-44.61
-35.88
-26.19
-15.91
-5.49
4.55
13.78
21.83
28.51
33.69
37.43
39.81
40.99
41.12
40.28
38.56
36.12
33.23
30.23
27.49
25.25
23.50
21.95
20.13
17.58
14.01
9.57
4.85
0.75
-1.77
-2.03
0.14
4.30
9.61
15.08
19.97
23.83
26.63
28.50
29.64
30.18
30.18
29.69
28.80
27.64
26.42
25.34
24.50
23.87
23.30
22.58
21.62
20.47
19.38
18.51
17.90
17.29
16.23
14.32
11.46
7.91
4.16
0.67
-2.31
-4.84
-7.18
-9.63
-12.33
-15.28
-18.33
-21.21
-23.61
-25.16
-25.44
-24.10
-20.94
-16.08
-9.95
-3.27
3.14
8.52
12.46
14.92
16.15
16.56
16.44
15.92
15.01
13.77
12.42
11.30
10.72
10.80
11.29
11.81
11.96
11.58
10.75
9.71
8.70
7.81
6.99
6.14
5.11
3.80
2.12
-0.02
-2.59
-5.45
-8.35
-11.00
-13.21
-14.98
-16.61
-18.45
-20.81
-23.68
-26.65
-28.98
-29.80
-28.49
-24.90
-19.48
-13.05
-6.55
-0.72
4.07
7.78
10.58
12.64
14.03
14.76
14.79
14.12
12.88
11.26
9.54
8.03
6.96
6.46
6.51
6.90
7.37
7.64
7.51
6.87
5.68
3.98
1.83
-0.61
-3.15
-5.57
-7.72
-9.59
-11.32
-13.25
-15.69
-18.76
-22.25
-25.57
-27.84
-28.29
-26.46
-22.42
-16.81
-10.54
-4.49
0.76
4.98
8.21
10.54
11.99
12.57
12.31
11.41
10.26
9.23
8.57
8.33
8.28
8.20
7.88
7.28
6.52
5.74
5.05
4.41
3.72
2.79
1.51
-0.08
-1.85
-3.58
-5.19
-6.70
-8.33
-10.34
-12.97
-16.23
-19.90
-23.53
-26.51
-28.21
-28.11
-25.95
-21.84
-16.32
-10.15
-4.12
1.14
5.33
8.44
10.65
12.17
13.20
13.80
13.99
13.80
13.29
12.58
11.82
11.14
10.64
10.33
10.17
10.04
9.90
9.69
9.39
8.95
8.20
6.95
5.05
2.53
-0.38
-3.29
-5.86
-7.92
-9.57
-11.11
-12.92
-15.27
-18.23
-21.58
-24.88
-27.51
-28.78
-28.13
-25.32
-20.54
-14.48
-8.06
-2.17
2.57
6.06
8.53
10.44
12.07
13.54
14.69
15.30
15.30
14.79
14.05
13.41
13.08
13.06
13.18
13.17
12.85
12.23
11.47
10.82
10.44
10.27
10.01
9.25
7.61
4.99
1.62
-1.98
-5.21
-7.67
-9.26
-10.27
-11.17
-12.52
-14.65
-17.64
-21.29
-25.16
-28.62
-31.02
-31.77
-30.48
-27.07
-21.83
-15.39
-8.52
-2.04
3.51
7.82
10.90
12.96
14.32
15.23
15.87
16.29
16.49
16.47
16.26
15.94
15.62
15.39
15.25
15.15
14.99
14.67
14.13
13.38
12.45
11.37
10.19
8.89
7.48
5.90
4.07
1.96
-0.40
-2.90
-5.35
-7.56
-9.46
-11.07
-12.59
-14.25
-16.26
-18.79
-21.83
-25.20
-28.49
-31.11
-32.29
-31.37
-28.03
-22.41
-15.22
-7.46
-0.18
5.86
10.35
13.38
15.28
16.44
17.17
17.63
17.94
18.19
18.47
18.87
19.36
19.85
20.14
20.07
19.54
18.54
17.17
15.55
13.86
12.25
10.78
9.40
7.98
6.33
4.32
1.99
-0.53
-3.00
-5.19
-6.93
-8.22
-9.15
-9.94
-10.88
-12.27
-14.37
-17.24
-20.62
-23.90
-26.27
-26.91
-25.33
-21.57
-16.16
-10.00
-3.98
1.26
5.48
8.71
11.18
13.04
14.37
15.20
15.54
15.47
15.13
14.69
14.31
14.10
14.14
14.39
14.76
15.11
15.33
15.38
15.29
15.08
14.72
14.07
12.98
11.32
9.10
6.44
3.60
0.85
-1.60
-3.68
-5.46
-7.14
-9.00
-11.28
-14.12
-17.41
-20.81
-23.77
-25.66
-25.93
-24.25
-20.66
-15.56
-9.65
-3.77
1.32
5.17
7.68
9.10
9.83
10.31
10.79
11.37
11.96
12.47
12.83
13.08
13.32
13.61
13.93
14.17
14.19
13.89
13.29
12.48
11.59
10.66
9.64
8.41
6.80
4.78
2.44
-0.00
-2.28
-4.24
-5.84
-7.26
-8.78
-10.69
-13.14
-16.14
-19.47
-22.75
-25.53
-27.28
-27.58
-26.16
-23.01
-18.43
-12.93
-7.21
-1.90
2.50
5.80
8.09
9.63
10.78
11.76
12.64
13.28
13.55
13.35
12.76
12.05
11.47
11.22
11.27
11.43
11.43
11.12
10.46
9.56
8.62
7.80
7.13
6.54
5.84
4.82
3.40
1.60
-0.41
-2.39
-4.17
-5.74
-7.24
-8.92
-10.93
-13.35
-16.11
-18.97
-21.56
-23.46
-24.18
-23.39
-20.98
-17.14
-12.38
-7.31
-2.54
1.58
4.86
7.33
9.01
9.91
10.11
9.73
9.10
8.55
8.39
8.68
9.26
9.87
10.21
10.18
9.79
9.19
8.48
7.70
6.84
5.84
4.67
3.33
1.90
0.42
-1.08
-2.59
-4.09
-5.50
-6.75
-7.75
-8.54
-9.24
-10.11
-11.43
-13.43
-16.09
-19.11
-21.91
-23.81
-24.21
-22.80
-19.68
-15.32
-10.40
-5.61
-1.42
2.00
4.73
6.97
8.91
10.54
11.75
12.40
12.47
12.09
11.52
11.00
10.60
10.25
9.79
9.09
8.16
7.11
6.12
5.27
4.53
3.75
2.76
1.47
-0.14
-1.97
-3.87
-5.72
-7.43
-8.95
-10.36
-11.78
-13.45
-15.47
-17.81
-20.17
-21.96
-22.53
-21.39
-18.42
-13.98
-8.77
-3.57
1.01
4.73
7.59
9.79
11.49
12.74
13.58
14.00
14.07
13.94
13.74
13.55
13.35
13.08
12.64
12.01
11.25
10.42
9.65
9.03
8.62
8.31
7.91
7.12
5.69
3.55
0.85
-2.07
-4.82
-7.14
-8.99
-10.59
-12.25
-14.22
-16.55
-19.12
-21.63
-23.80
-25.30
-25.86
-25.26
-23.40
-20.30
-16.21
-11.61
-7.04
-3.01
0.19
2.48
3.95
4.81
5.27
5.51
5.68
5.89
6.20
6.64
7.18
7.76
8.30
8.69
8.88
8.77
8.36
7.65
6.73
5.71
4.67
3.60
2.42
0.97
-0.88
-3.11
-5.56
-7.92
-9.83
-11.06
-11.59
-11.68
-11.78
-12.35
-13.73
-15.94
-18.63
-21.12
-22.63
-22.52
-20.52
-16.82
-11.93
-6.57
-1.35
3.28
7.10
10.06
12.19
13.52
14.15
14.18
13.76
13.09
12.35
11.71
11.28
11.07
10.98
10.91
10.74
10.43
10.05
9.70
9.46
9.38
9.42
9.50
9.53
9.36
8.82
7.75
6.06
3.82
1.25
-1.32
-3.61
-5.52
-7.12
-8.63
-10.31
-12.39
-14.98
-18.04
-21.35
-24.42
-26.61
-27.23
-25.79
-22.20
-16.87
-10.57
-4.24
1.29
5.58
8.53
10.34
11.29
11.64
11.59
11.25
10.77
10.29
10.02
10.05
10.37
10.79
11.01
10.83
10.18
9.19
8.17
7.41
7.10
7.23
7.60
7.87
7.72
6.89
5.35
3.20
0.67
-1.97
-4.44
-6.55
-8.24
-9.56
-10.64
-11.67
-12.89
-14.53
-16.68
-19.17
-21.53
-23.11
-23.23
-21.49
-17.90
-12.96
-7.45
-2.17
2.28
5.68
8.03
9.59
10.56
11.08
11.21
11.02
10.67
10.40
10.46
10.98
11.90
12.88
13.49
13.44
12.68
11.50
10.32
9.55
9.32
9.45
9.48
8.99
7.70
5.65
3.13
0.54
-1.75
-3.60
-5.05
-6.34
-7.72
-9.36
-11.36
-13.72
-16.34
-19.00
-21.32
-22.72
-22.65
-20.73
-17.01
-11.96
-6.39
-1.16
3.06
5.92
7.45
7.91
7.71
7.25
6.87
6.79
7.06
7.63
8.34
9.08
9.75
10.34
10.80
11.09
11.16
10.90
10.34
9.49
8.39
7.06
5.46
3.64
1.68
-0.26
-1.99
-3.38
-4.44
-5.29
-6.15
-7.32
-9.05
-11.47
-14.50
-17.80
-20.73
-22.54
-22.58
-20.55
-16.68
-11.64
-6.29
-1.45
2.34
5.01
6.72
7.81
8.60
9.22
9.73
10.05
10.07
9.77
9.21
8.50
7.78
7.15
6.59
6.02
5.29
4.31
3.11
1.79
0.52
-0.59
-1.58
-2.54
-3.67
-5.06
-6.74
-8.62
-10.60
-12.54
-14.30
-15.70
-16.46
-16.23
-14.75
-11.96
-8.15
-3.91
0.11
3.37
5.68
7.20
8.31
9.32
10.38
11.42
12.19
12.51
12.25
11.44
10.13
8.43
6.49
4.53
2.82
1.62
1.18
1.49
2.38
3.47
4.27
4.36
3.51
1.82
-0.30
-2.32
-3.81
-4.66
-5.18
-5.95
-7.59
-10.41
-14.25
-18.50
-22.25
-24.61
-24.93
-22.94
-18.82
-13.09
-6.52
0.07
5.92
10.58
13.87
15.91
16.98
17.35
17.16
16.43
15.11
13.24
11.03
8.81
6.99
5.79
5.28
5.35
5.81
6.52
7.39
8.32
9.14
9.60
9.40
8.37
6.55
4.19
1.61
-0.88
-3.14
-5.15
-7.05
-8.95
-10.94
-13.02
-15.11
-16.92
-18.05
-18.03
-16.50
-13.37
-8.93
-3.77
1.41
5.96
9.48
11.81
12.98
13.14
12.55
11.46
10.15
8.87
7.83
7.14
6.88
7.00
7.42
7.98
8.51
8.83
8.80
8.38
7.62
6.67
5.67
4.73
3.84
2.92
1.82
0.43
-1.34
-3.46
-5.76
-8.09
-10.30
-12.36
-14.33
-16.22
-17.85
-18.89
-18.88
-17.40
-14.38
-10.08
-5.13
-0.28
3.83
6.83
8.68
9.57
9.82
9.68
9.30
8.76
8.03
7.11
6.06
5.03
4.26
3.96
4.22
5.00
6.01
6.89
7.30
7.03
6.01
4.34
2.18
-0.34
-3.06
-5.92
-8.80
-11.57
-14.13
-16.37
-18.32
-19.98
-21.36
-22.24
-22.31
-21.07
-18.18
-13.59
-7.74
-1.41
4.44
9.00
11.91
13.21
13.30
12.67
11.72
10.70
9.67
8.70
7.82
7.13
6.74
6.69
6.93
7.34
7.73
7.95
7.88
7.44
6.64
5.48
4.00
2.28
0.38
-1.57
-3.43
-5.08
-6.44
-7.55
-8.60
-9.84
-11.51
-13.75
-16.41
-19.09
-21.12
-21.78
-20.55
-17.32
-12.54
-7.00
-1.66
2.77
5.98
8.11
9.49
10.47
11.19
11.58
11.55
11.12
10.48
9.91
9.65
9.81
10.27
10.77
11.06
11.00
10.52
9.74
8.78
7.72
6.54
5.13
3.41
1.32
-1.00
-3.30
-5.31
-6.86
-7.96
-8.83
-9.88
-11.46
-13.74
-16.52
-19.28
-21.24
-21.68
-20.15
-16.61
-11.55
-5.70
0.08
5.07
8.87
11.41
12.90
13.65
14.01
14.17
14.21
14.04
13.63
13.00
12.30
11.76
11.46
11.37
11.26
10.93
10.29
9.50
8.84
8.51
8.51
8.53
8.19
7.19
5.48
3.28
0.95
-1.23
-3.15
-4.89
-6.66
-8.68
-11.08
-13.90
-17.03
-20.23
-23.07
-25.01
-25.45
-23.97
-20.46
-15.24
-9.03
-2.73
2.82
7.09
9.96
11.67
12.60
13.11
13.33
13.32
13.03
12.48
11.82
11.25
10.95
10.94
11.13
11.33
11.40
11.26
10.96
10.56
10.04
9.28
8.07
6.24
3.84
1.13
-1.43
-3.51
-4.97
-5.98
-6.84
-7.86
-9.20
-10.87
-12.82
-14.98
-17.31
-19.65
-21.69
-22.95
-22.94
-21.32
-18.08
-13.58
-8.38
-3.14
1.59
5.49
8.46
10.59
12.03
12.87
13.15
12.90
12.26
11.44
10.73
10.34
10.31
10.50
10.67
10.64
10.35
9.87
9.32
8.75
8.12
7.28
6.07
4.41
2.35
0.10
-2.07
-3.86
-5.15
-6.02
-6.81
-7.99
-9.97
-12.87
-16.40
-19.93
-22.62
-23.69
-22.69
-19.58
-14.79
-9.08
-3.29
1.86
5.94
8.87
10.83
12.08
12.78
12.98
12.67
11.84
10.60
9.15
7.74
6.60
5.87
5.54
5.43
5.24
4.67
3.55
1.92
0.09
-1.53
-2.62
-3.03
-2.92
-2.63
-2.63
-3.35
-5.09
-7.99
-11.87
-16.27
-20.47
-23.62
-25.06
-24.49
-22.11
-18.47
-14.23
-9.97
-5.97
-2.29
1.11
4.33
7.33
9.99
12.12
13.54
14.13
13.88
12.97
11.73
10.52
9.63
9.13
8.90
8.71
8.35
7.67
6.66
5.33
3.72
1.84
-0.23
-2.31
-4.21
-5.75
-6.92
-7.92
-9.11
-10.89
-13.49
-16.82
-20.36
-23.28
-24.64
-23.78
-20.53
-15.39
-9.31
-3.35
1.64
5.26
7.60
8.98
9.80
10.33
10.71
10.94
10.98
10.81
10.43
9.88
9.29
8.77
8.38
8.10
7.84
7.47
6.92
6.17
5.25
4.23
3.18
2.14
1.14
0.14
-0.91
-2.15
-3.77
-5.91
-8.61
-11.71
-14.83
-17.39
-18.83
-18.67
-16.71
-13.10
-8.26
-2.81
2.59
7.38
11.18
13.80
15.26
15.72
15.46
14.81
14.07
13.45
13.03
12.76
12.56
12.33
12.04
11.65
11.21
10.71
10.16
9.53
8.76
7.75
6.41
4.63
2.38
-0.28
-3.17
-6.00
-8.42
-10.16
-11.19
-11.76
-12.27
-13.18
-14.65
-16.46
-18.03
-18.58
-17.50
-14.61
-10.23
-5.13
-0.19
3.91
6.93
9.03
10.58
11.89
13.05
13.90
14.25
14.08
13.59
13.14
13.00
13.22
13.54
13.54
12.90
11.53
9.64
7.60
5.71
4.12
2.79
1.51
0.08
-1.61
-3.57
-5.70
-7.91
-10.26
-12.89
-15.93
-19.36
-22.83
-25.61
-26.92
-26.12
-23.10
-18.31
-12.59
-6.86
-1.78
2.38
5.70
8.39
10.72
12.80
14.63
16.12
17.13
17.50
17.13
16.07
14.54
12.93
11.63
10.88
10.64
10.65
10.51
9.91
8.71
6.97
4.94
2.81
0.79
-1.04
-2.62
-3.93
-4.96
-5.79
-6.65
-7.84
-9.65
-12.11
-14.92
-17.41
-18.78
-18.43
-16.21
-12.49
-7.98
-3.44
0.65
4.09
6.99
9.46
11.60
13.34
14.55
15.21
15.39
15.26
15.02
14.74
14.39
13.86
13.05
11.95
10.71
9.54
8.64
8.11
7.84
7.63
7.17
6.23
4.68
2.56
0.07
-2.51
-4.86
-6.77
-8.22
-9.32
-10.32
-11.47
-12.89
-14.51
-16.02
-17.03
-17.15
-16.06
-13.68
-10.14
-5.82
-1.23
3.09
6.71
9.43
11.22
12.29
12.84
13.10
13.21
13.27
13.39
13.69
14.25
15.10
16.15
17.23
18.10
18.54
18.41
17.72
16.57
15.21
13.78
12.40
10.98
9.39
7.48
5.26
2.90
0.62
-1.36
-2.99
-4.35
-5.61
-6.94
-8.43
-10.16
-12.23
-14.70
-17.52
-20.39
-22.72
-23.91
-23.47
-21.31
-17.78
-13.49
-9.10
-5.03
-1.48
1.54
4.03
5.91
7.06
7.35
6.84
5.77
4.53
3.53
3.02
3.10
3.59
4.25
4.83
5.23
5.43
5.51
5.46
5.22
4.70
3.86
2.73
1.50
0.41
-0.29
-0.49
-0.27
0.12
0.32
-0.02
-1.04
-2.68
-4.69
-6.76
-8.69
-10.48
-12.22
-13.98
-15.58
-16.62
-16.62
-15.29
-12.71
-9.34
-5.83
-2.79
-0.54
0.91
1.83
2.52
3.19
3.87
4.42
4.66
4.46
3.85
3.04
2.34
2.00
2.11
2.57
3.11
3.55
3.71
3.58
3.18
2.53
1.56
0.24
-1.39
-3.16
-4.83
-6.21
-7.22
-7.92
-8.48
-9.12
-10.03
-11.26
-12.83
-14.51
-16.01
-16.88
-16.67
-15.06
-12.03
-7.96
-3.50
0.54
3.55
5.24
5.74
5.42
4.75
4.06
3.53
3.15
2.87
2.74
2.80
3.16
3.84
4.72
5.58
6.13
6.11
5.36
3.93
2.03
-0.02
-1.93
-3.53
-4.81
-5.91
-7.00
-8.21
-9.56
-10.91
-12.09
-12.90
-13.24
-13.05
-12.34
-11.10
-9.35
-7.11
-4.50
-1.73
0.92
3.14
4.82
5.96
6.74
7.34
7.81
7.99
7.63
6.56
4.82
2.72
0.73
-0.68
-1.29
-1.17
-0.59
0.04
0.42
0.40
0.01
-0.57
-1.14
-1.58
-1.92
-2.28
-2.88
-3.88
-5.32
-7.11
-9.07
-10.98
-12.67
-13.98
-14.69
-14.52
-13.21
-10.67
-7.07
-2.89
1.23
4.69
7.09
8.30
8.50
8.00
7.20
6.44
5.98
5.88
6.05
6.28
6.40
6.31
6.11
6.01
6.05
6.14
6.03
5.42
4.20
2.50
0.60
-1.23
-2.80
-4.15
-5.36
-6.54
-7.70
-8.84
-9.96
-11.07
-12.17
-13.14
-13.71
-13.52
-12.29
-9.95
-6.72
-3.08
0.42
3.32
5.33
6.43
6.76
6.59
6.17
5.68
5.23
4.81
4.39
3.91
3.35
2.72
2.09
1.61
1.41
1.55
1.99
2.50
2.86
2.82
2.26
1.22
-0.18
-1.77
-3.42
-5.01
-6.53
-7.95
-9.22
-10.26
-10.89
-10.92
-10.22
-8.74
-6.63
-4.19
-1.79
0.23
1.68
2.55
2.96
3.10
3.19
3.42
3.96
4.84
5.93
6.94
7.54
7.48
6.75
5.54
4.13
2.75
1.47
0.25
-0.97
-2.14
-3.16
-3.95
-4.55
-5.06
-5.62
-6.28
-7.02
-7.75
-8.45
-9.15
-9.93
-10.84
-11.82
-12.69
-13.16
-12.99
-12.01
-10.19
-7.66
-4.68
-1.54
1.51
4.32
6.79
8.81
10.26
10.99
10.97
10.27
9.22
8.16
7.38
7.00
6.96
7.08
7.18
7.13
6.89
6.49
5.93
5.29
4.62
3.94
3.26
2.55
1.75
0.81
-0.28
-1.58
-3.13
-5.05
-7.48
-10.44
-13.84
-17.31
-20.35
-22.30
-22.64
-21.11
-17.88
-13.53
-8.86
-4.66
-1.42
0.75
2.11
3.04
3.86
4.68
5.36
5.74
5.74
5.48
5.25
5.32
5.86
6.74
7.73
8.49
8.85
8.78
8.44
8.05
7.73
7.49
7.22
6.78
6.05
5.04
3.75
2.26
0.64
-0.98
-2.45
-3.60
-4.35
-4.82
-5.26
-6.06
-7.42
-9.30
-11.31
-12.81
-13.17
-11.96
-9.15
-5.06
-0.29
4.46
8.62
11.81
13.94
15.10
15.49
15.26
14.53
13.30
11.68
9.87
8.15
6.82
6.09
5.97
6.27
6.70
6.90
6.61
5.66
4.04
1.94
-0.28
-2.19
-3.37
-3.63
-3.13
-2.35
-1.96
-2.52
-4.25
-6.99
-10.27
-13.50
-16.17
-18.00
-18.89
-18.89
-18.09
-16.58
-14.51
-12.11
-9.64
-7.29
-5.04
-2.60
0.46
4.49
9.57
15.36
21.27
26.63
30.97
34.05
35.87
36.53
36.18
35.00
33.16
30.79
27.85
24.13
19.37
13.49
6.78
-0.24
-7.01
-13.38
-19.67
-26.47
-34.16
-42.52
-50.77
-57.91
-63.30
-66.99
-69.57
-71.87
-74.33
-76.93
-79.12
-80.24
-79.88
-78.06
-75.23
-71.98
-68.85
-66.10
-63.69
-61.26
-58.37
-54.57
-49.61
-43.51
-36.50
-28.96
-21.29
-13.89
-7.13
-1.32
3.35
6.77
9.04
10.39
11.20
11.96
13.11
14.96
17.60
20.85
24.28
27.41
29.83
31.33
32.05
32.25
32.21
32.09
31.80
31.10
29.77
27.70
24.95
21.80
18.58
15.56
12.88
10.56
8.49
6.51
4.44
2.12
-0.43
-2.95
-4.89
-5.54
-4.28
-0.86
4.39
10.66
16.91
22.24
26.18
28.75
30.32
31.25
31.76
31.86
31.48
30.67
29.72
29.02
28.89
29.39
30.26
31.02
31.26
30.80
29.77
28.52
27.42
26.60
25.95
25.13
23.81
21.85
19.35
16.61
14.00
11.79
10.06
8.71
7.48
6.08
4.27
1.92
-0.87
-3.76
-6.23
-7.67
-7.59
-5.75
-2.24
2.51
7.91
13.34
18.35
22.70
26.31
29.14
31.13
32.14
32.03
30.76
28.55
25.81
23.08
20.77
19.08
17.91
17.04
16.29
15.59
15.07
14.84
14.90
15.03
14.93
14.25
12.79
10.42
7.05
2.53
-3.31
-10.44
-18.53
-26.89
-34.73
-41.45
-46.95
-51.58
-55.89
-60.07
-63.82
-66.30
-66.68
-64.53
-60.13
-54.41
-48.47
-43.19
-38.86
-35.20
-31.62
-27.55
-22.74
-17.29
-11.63
-6.23
-1.49
2.47
5.79
8.77
11.69
14.66
17.57
20.24
22.39
23.81
24.36
23.99
22.73
20.73
18.22
15.51
12.88
10.57
8.68
7.14
5.80
4.42
2.85
1.12
-0.50
-1.47
-1.23
0.61
4.05
8.62
13.57
18.12
21.68
24.03
25.17
25.24
24.39
22.77
20.58
18.16
15.90
14.14
13.06
12.58
12.43
12.29
11.95
11.30
10.40
9.40
8.35
7.29
6.14
4.87
3.47
2.06
0.72
-0.42
-1.44
-2.52
-3.96
-6.09
-9.10
-12.97
-17.43
-21.93
-25.77
-28.19
-28.59
-26.67
-22.56
-16.75
-10.04
-3.31
2.72
7.59
11.13
13.39
14.55
14.83
14.46
13.67
12.70
11.76
11.04
10.67
10.65
10.93
11.31
11.65
11.80
11.69
11.35
10.81
10.11
9.24
8.12
6.60
4.62
2.21
-0.42
-2.94
-5.01
-6.46
-7.38
-8.06
-8.94
-10.39
-12.56
-15.27
-18.04
-20.16
-20.92
-19.80
-16.62
-11.65
-5.56
0.81
6.66
11.54
15.31
18.08
20.03
21.20
21.50
20.90
19.54
17.84
16.37
15.59
15.67
16.39
17.29
17.91
18.01
17.65
17.07
16.47
15.88
15.11
13.86
11.90
9.18
5.90
2.43
-0.81
-3.56
-5.73
-7.46
-9.05
-10.76
-12.78
-15.18
-17.89
-20.80
-23.69
-26.18
-27.75
-27.84
-26.03
-22.23
-16.79
-10.39
-3.85
2.14
7.15
11.00
13.73
15.44
16.27
16.39
16.06
15.54
15.08
14.83
14.79
14.83
14.77
14.44
13.77
12.88
11.88
10.90
9.98
9.03
7.94
6.62
5.06
3.31
1.46
-0.40
-2.21
-3.90
-5.48
-7.06
-8.82
-11.01
-13.80
-17.19
-20.87
-24.25
-26.56
-27.09
-25.43
-21.66
-16.30
-10.18
-4.18
1.02
5.11
8.15
10.38
12.00
13.11
13.67
13.65
13.15
12.41
11.73
11.33
11.23
11.24
11.11
10.72
10.14
9.57
9.21
9.09
9.04
8.75
7.91
6.37
4.23
1.73
-0.80
-3.15
-5.29
-7.40
-9.79
-12.70
-16.22
-20.09
-23.79
-26.56
-27.69
-26.76
-23.76
-19.13
-13.60
-8.01
-2.99
1.10
4.22
6.58
8.38
9.79
10.88
11.66
12.11
12.33
12.44
12.61
12.94
13.36
13.72
13.82
13.54
12.90
12.03
11.11
10.18
9.24
8.09
6.61
4.68
2.35
-0.24
-2.91
-5.52
-8.02
-10.39
-12.73
-15.17
-17.86
-20.93
-24.36
-27.92
-31.08
-33.14
-33.41
-31.49
-27.48
-21.96
-15.79
-9.80
-4.56
-0.19
3.42
6.52
9.27
11.67
13.69
15.24
16.33
16.97
17.21
17.08
16.59
15.73
14.59
13.32
12.05
10.95
10.09
9.47
9.02
8.57
7.95
6.97
5.53
3.61
1.36
-0.97
-3.07
-4.76
-6.09
-7.34
-8.95
-11.35
-14.68
-18.73
-22.90
-26.37
-28.33
-28.21
-25.79
-21.31
-15.35
-8.70
-2.15
3.67
8.38
11.93
14.43
16.15
17.34
18.23
18.97
19.65
20.36
21.13
21.97
22.78
23.45
23.77
23.56
22.78
21.49
19.93
18.38
17.05
15.95
14.92
13.68
11.96
9.66
6.84
3.69
0.48
-2.57
-5.33
-7.76
-9.89
-11.84
-13.73
-15.75
-18.03
-20.66
-23.56
-26.43
-28.71
-29.71
-28.88
-25.94
-21.10
-14.99
-8.49
-2.44
2.58
6.39
9.13
11.06
12.48
13.58
14.47
15.26
16.02
16.81
17.57
18.15
18.28
17.80
16.67
15.11
13.44
11.95
10.78
9.83
8.88
7.67
6.06
4.04
1.79
-0.49
-2.55
-4.23
-5.47
-6.32
-6.98
-7.72
-8.85
-10.62
-13.12
-16.22
-19.50
-22.33
-23.96
-23.78
-21.55
-17.46
-12.14
-6.44
-1.21
3.02
6.03
7.93
8.98
9.42
9.44
9.10
8.51
7.76
7.03
6.48
6.22
6.31
6.68
7.20
7.70
8.03
8.06
7.74
7.05
6.01
4.70
3.14
1.39
-0.58
-2.76
-5.20
-7.90
-10.84
-13.87
-16.68
-18.84
-19.82
-19.19
-16.75
-12.69
-7.56
-2.12
2.85
6.88
9.73
11.54
12.55
12.98
12.96
12.57
11.87
10.99
10.15
9.47
9.06
8.89
8.88
8.93
9.05
9.24
9.47
9.65
9.55
8.98
7.84
6.16
4.14
1.99
-0.17
-2.35
-4.71
-7.46
-10.70
-14.38
-18.29
-22.00
-25.05
-26.92
-27.24
-25.78
-22.65
-18.24
-13.11
-7.92
-3.22
0.66
3.67
5.95
7.75
9.26
10.59
11.69
12.49
12.93
13.00
12.77
12.38
11.91
11.47
11.11
10.87
10.71
10.58
10.35
9.92
9.15
8.02
6.59
4.97
3.27
1.54
-0.24
-2.16
-4.31
-6.73
-9.43
-12.34
-15.33
-18.20
-20.62
-22.14
-22.30
-20.80
-17.64
-13.21
-8.21
-3.41
0.58
3.50
5.43
6.65
7.46
8.04
8.43
8.62
8.58
8.40
8.20
8.08
8.13
8.30
8.52
8.66
8.65
8.43
8.03
7.56
7.09
6.68
6.27
5.72
4.88
3.62
1.96
0.08
-1.74
-3.26
-4.42
-5.37
-6.41
-7.90
-10.05
-12.88
-16.19
-19.69
-23.01
-25.79
-27.69
-28.38
-27.64
-25.41
-21.88
-17.43
-12.57
-7.78
-3.44
0.20
3.01
4.97
6.18
6.82
7.16
7.46
7.89
8.50
9.22
9.95
10.61
11.23
11.92
12.74
13.65
14.43
14.78
14.44
13.35
11.67
9.77
8.00
6.52
5.30
4.13
2.83
1.33
-0.29
-1.86
-3.25
-4.41
-5.42
-6.39
-7.52
-9.00
-11.01
-13.61
-16.62
-19.65
-22.16
-23.63
-23.74
-22.45
-19.96
-16.57
-12.63
-8.52
-4.61
-1.27
1.22
2.77
3.52
3.78
3.87
4.01
4.24
4.46
4.60
4.67
4.81
5.15
5.77
6.59
7.35
7.79
7.70
7.08
6.10
4.98
3.93
2.99
2.09
1.08
-0.15
-1.56
-3.02
-4.31
-5.31
-6.01
-6.63
-7.42
-8.66
-10.53
-12.90
-15.43
-17.55
-18.68
-18.40
-16.61
-13.54
-9.75
-5.85
-2.39
0.33
2.31
3.67
4.66
5.44
6.12
6.65
6.99
7.10
6.99
6.74
6.45
6.17
5.87
5.47
4.91
4.22
3.56
3.10
2.96
2.99
2.94
2.46
1.39
-0.18
-2.00
-3.72
-5.14
-6.21
-7.11
-8.06
-9.28
-10.90
-12.85
-14.90
-16.63
-17.61
-17.44
-15.99
-13.40
-10.08
-6.52
-3.16
-0.31
1.90
3.51
4.59
5.26
5.68
5.96
6.14
6.25
6.25
6.11
5.83
5.43
4.94
4.39
3.81
3.29
2.94
2.84
2.99
3.22
3.22
2.71
1.55
-0.17
-2.13
-3.94
-5.31
-6.17
-6.67
-7.09
-7.66
-8.53
-9.69
-11.09
-12.57
-13.94
-14.92
-15.14
-14.28
-12.16
-8.94
-5.11
-1.36
1.66
3.63
4.55
4.73
4.60
4.50
4.58
4.87
5.27
5.70
6.09
6.36
6.47
6.34
5.97
5.40
4.77
4.19
3.73
3.42
3.19
2.96
2.62
2.12
1.41
0.55
-0.41
-1.40
-2.39
-3.39
-4.44
-5.64
-7.03
-8.67
-10.52
-12.52
-14.51
-16.18
-17.15
-17.03
-15.58
-12.82
-9.12
-5.01
-1.07
2.32
4.96
6.85
8.12
8.85
9.16
9.09
8.75
8.24
7.67
7.15
6.67
6.20
5.65
4.99
4.26
3.64
3.31
3.41
3.89
4.45
4.71
4.31
3.14
1.35
-0.71
-2.69
-4.39
-5.79
-6.98
-8.11
-9.25
-10.51
-11.89
-13.38
-14.84
-16.04
-16.60
-16.23
-14.73
-12.21
-9.02
-5.63
-2.52
0.00
1.78
2.83
3.30
3.32
3.06
2.66
2.26
1.92
1.67
1.53
1.49
1.59
1.89
2.45
3.19
3.97
4.54
4.62
4.08
2.97
1.52
-0.03
-1.45
-2.70
-3.87
-5.05
-6.31
-7.62
-8.94
-10.26
-11.70
-13.33
-15.13
-16.85
-18.02
-18.12
-16.77
-13.99
-10.16
-5.92
-1.89
1.49
4.07
5.94
7.30
8.33
9.07
9.49
9.54
9.17
8.39
7.33
6.18
5.18
4.58
4.47
4.81
5.38
5.85
5.92
5.42
4.34
2.85
1.14
-0.60
-2.29
-3.92
-5.47
-6.97
-8.45
-9.98
-11.72
-13.75
-15.98
-18.11
-19.61
-19.87
-18.53
-15.56
-11.36
-6.65
-2.16
1.52
4.15
5.80
6.77
7.37
7.78
8.01
7.97
7.61
6.96
6.22
5.61
5.30
5.29
5.44
5.55
5.41
4.94
4.16
3.16
2.09
1.05
0.05
-0.93
-1.99
-3.20
-4.61
-6.16
-7.81
-9.48
-11.21
-13.02
-14.93
-16.76
-18.14
-18.59
-17.62
-15.09
-11.20
-6.57
-1.93
2.06
5.09
7.17
8.59
9.68
10.58
11.24
11.51
11.28
10.63
9.76
8.96
8.45
8.26
8.32
8.53
8.85
9.23
9.65
9.97
9.99
9.46
8.30
6.50
4.27
1.89
-0.38
-2.33
-3.90
-5.14
-6.19
-7.27
-8.57
-10.18
-12.01
-13.79
-15.07
-15.42
-14.55
-12.37
-9.10
-5.16
-1.05
2.78
5.98
8.41
10.02
10.80
10.82
10.19
9.12
7.94
6.98
6.45
6.45
6.86
7.45
8.01
8.37
8.52
8.50
8.41
8.26
8.01
7.46
6.42
4.81
2.69
0.31
-1.93
-3.74
-5.00
-5.84
-6.57
-7.46
-8.65
-10.03
-11.38
-12.42
-12.90
-12.66
-11.58
-9.59
-6.70
-3.05
1.03
5.12
8.72
11.49
13.25
14.09
14.28
14.17
14.05
14.06
14.21
14.36
14.38
14.17
13.73
13.15
12.53
11.95
11.36
10.66
9.76
8.56
7.09
5.46
3.80
2.26
0.89
-0.35
-1.57
-2.86
-4.29
-5.84
-7.48
-9.17
-10.90
-12.60
-14.13
-15.20
-15.46
-14.58
-12.40
-9.04
-4.90
-0.52
3.54
6.92
9.49
11.31
12.55
13.38
13.89
14.13
14.12
13.93
13.67
13.45
13.34
13.31
13.29
13.15
12.85
12.40
11.84
11.29
10.77
10.26
9.67
8.83
7.59
5.93
3.92
1.73
-0.41
-2.33
-3.97
-5.41
-6.74
-8.08
-9.48
-10.88
-12.19
-13.18
-13.63
-13.33
-12.16
-10.18
-7.60
-4.74
-1.90
0.68
2.95
4.92
6.64
8.11
9.25
9.99
10.29
10.22
9.92
9.58
9.37
9.32
9.42
9.53
9.52
9.32
8.94
8.48
8.09
7.81
7.61
7.27
6.57
5.38
3.77
1.98
0.35
-0.91
-1.75
-2.34
-2.92
-3.73
-4.84
-6.25
-7.83
-9.46
-10.97
-12.13
-12.70
-12.43
-11.24
-9.21
-6.65
-3.93
-1.39
0.77
2.53
4.00
5.28
6.42
7.39
8.07
8.37
8.16
7.45
6.39
5.20
4.18
3.54
3.33
3.40
3.49
3.37
2.90
2.20
1.47
0.93
0.60
0.36
-0.01
-0.68
-1.62
-2.66
-3.50
-4.00
-4.18
-4.24
-4.45
-4.99
-5.89
-7.10
-8.48
-9.85
-11.04
-11.80
-11.89
-11.12
-9.48
-7.18
-4.61
-2.20
-0.27
1.02
1.74
2.07
2.21
2.28
2.36
2.43
2.47
2.44
2.35
2.23
2.09
1.92
1.70
1.43
1.18
1.06
1.18
1.56
2.12
2.68
2.97
2.85
2.28
1.32
0.11
-1.23
-2.64
-4.07
-5.43
-6.61
-7.43
-7.86
-7.99
-8.08
-8.42
-9.20
-10.32
-11.41
-11.97
-11.54
-10.00
-7.56
-4.74
-2.10
-0.03
1.37
2.22
2.73
3.04
3.15
2.97
2.46
1.69
0.85
0.21
-0.07
0.03
0.41
0.85
1.23
1.48
1.68
1.93
2.31
2.82
3.32
3.66
3.64
3.20
2.37
1.28
0.11
-1.03
-2.06
-2.98
-3.87
-4.78
-5.74
-6.76
-7.73
-8.54
-9.03
-9.06
-8.57
-7.61
-6.28
-4.69
-3.04
-1.47
-0.12
0.87
1.48
1.75
1.79
1.78
1.83
1.98
2.18
2.40
2.58
2.71
2.79
2.75
2.62
2.38
2.10
1.86
1.73
1.68
1.61
1.36
0.83
0.05
-0.92
-1.91
-2.77
-3.34
-3.60
-3.60
-3.58
-3.82
-4.58
-5.96
-7.86
-9.95
-11.82
-13.13
-13.63
-13.23
-11.97
-9.95
-7.40
-4.63
-2.00
0.23
1.96
3.31
4.50
5.69
6.90
7.92
8.53
8.59
8.14
7.40
6.63
6.04
5.71
5.64
5.76
5.95
6.10
6.05
5.65
4.83
3.60
2.09
0.49
-0.98
-2.24
-3.25
-4.09
-4.84
-5.61
-6.45
-7.44
-8.62
-9.98
-11.39
-12.58
-13.25
-13.19
-12.31
-10.80
-9.00
-7.23
-5.70
-4.40
-3.15
-1.74
-0.07
1.75
3.49
4.83
5.61
5.81
5.56
5.13
4.72
4.41
4.18
3.83
3.21
2.23
0.98
-0.39
-1.66
-2.71
-3.53
-4.21
-4.86
-5.58
-6.42
-7.39
-8.44
-9.48
-10.38
-10.97
-11.09
-10.63
-9.57
-7.96
-5.92
-3.61
-1.23
1.01
2.89
4.31
5.25
5.79
6.04
6.07
5.86
5.35
4.54
3.54
2.60
1.97
1.76
1.92
2.20
2.33
2.13
1.57
0.80
0.00
-0.70
-1.30
-1.92
-2.74
-3.93
-5.51
-7.37
-9.27
-10.85
-11.76
-11.75
-10.71
-8.76
-6.12
-3.14
-0.10
2.75
5.22
7.14
8.35
8.76
8.37
7.36
6.01
4.73
3.79
3.35
3.30
3.44
3.55
3.51
3.35
3.16
3.08
3.10
3.10
2.92
2.42
1.56
0.43
-0.78
-1.93
-2.99
-4.06
-5.29
-6.80
-8.53
-10.26
-11.66
-12.39
-12.28
-11.31
-9.61
-7.42
-5.01
-2.63
-0.45
1.41
2.88
3.98
4.76
5.28
5.57
5.71
5.75
5.81
6.06
6.59
7.42
8.41
9.31
9.82
9.77
9.13
8.02
6.64
5.19
3.78
2.41
1.06
-0.27
-1.52
-2.65
-3.61
-4.50
-5.44
-6.58
-8.03
-9.73
-11.58
-13.38
-14.97
-16.16
-16.74
-16.57
-15.49
-13.46
-10.61
-7.19
-3.49
0.20
3.71
6.89
9.63
11.79
13.18
13.70
13.35
12.38
11.14
9.99
9.15
8.65
8.39
8.22
8.10
8.04
8.04
8.04
7.88
7.39
6.42
4.96
3.08
0.94
-1.31
-3.57
-5.71
-7.61
-9.14
-10.25
-10.97
-11.45
-11.83
-12.19
-12.51
-12.64
-12.42
-11.65
-10.24
-8.18
-5.66
-2.98
-0.48
1.53
2.98
3.94
4.68
5.41
6.27
7.17
7.98
8.62
9.13
9.64
10.26
11.01
11.71
12.12
12.02
11.37
10.30
9.06
7.89
6.95
6.26
5.68
5.06
4.27
3.26
2.13
1.02
0.09
-0.64
-1.30
-2.14
-3.44
-5.36
-7.80
-10.41
-12.65
-13.98
-14.00
-12.63
-10.06
-6.69
-2.99
0.57
3.69
6.17
7.89
8.86
9.13
8.81
8.09
7.16
6.22
5.42
4.82
4.44
4.23
4.09
3.99
3.88
3.80
3.76
3.81
3.90
3.94
3.76
3.21
2.22
0.84
-0.75
-2.32
-3.67
-4.73
-5.64
-6.64
-7.93
-9.58
-11.37
-12.89
-13.72
-13.49
-12.12
-9.80
-6.87
-3.74
-0.74
1.93
4.18
5.97
7.30
8.20
8.69
8.80
8.55
8.01
7.23
6.34
5.49
4.78
4.24
3.77
3.23
2.51
1.68
0.90
0.38
0.19
0.22
0.21
-0.10
-0.85
-2.04
-3.56
-5.36
-7.38
-9.54
-11.66
-13.35
-14.11
-13.50
-11.42
-8.19
-4.41
-0.76
2.30
4.65
6.43
7.87
9.07
9.86
9.99
9.27
7.78
5.92
4.25
3.26
3.10
3.60
4.34
4.88
4.97
4.58
3.89
3.09
2.34
1.59
0.73
-0.39
-1.83
-3.58
-5.59
-7.80
-10.17
-12.64
-15.03
-17.00
-18.10
-17.90
-16.14
-12.91
-8.61
-3.89
0.59
4.29
6.99
8.68
9.55
9.87
9.83
9.59
9.14
8.49
7.60
6.58
5.58
4.87
4.60
4.80
5.25
5.65
5.68
5.16
4.13
2.83
1.55
0.51
-0.26
-0.89
-1.61
-2.61
-4.05
-5.97
-8.30
-10.86
-13.29
-15.16
-16.02
-15.52
-13.59
-10.41
-6.44
-2.25
1.61
4.79
7.10
8.60
9.47
9.94
10.21
10.42
10.63
10.81
10.91
10.90
10.73
10.42
9.99
9.51
9.10
8.85
8.76
8.71
8.49
7.84
6.65
4.98
3.06
1.17
-0.53
-2.07
-3.67
-5.56
-7.90
-10.66
-13.65
-16.57
-19.07
-20.81
-21.46
-20.77
-18.63
-15.11
-10.54
-5.43
-0.40
4.00
7.39
9.65
10.90
11.48
11.78
12.13
12.60
13.12
13.49
13.56
13.34
13.03
12.87
12.99
13.36
13.74
13.91
13.72
13.15
12.25
11.02
9.37
7.21
4.56
1.61
-1.31
-3.86
-5.84
-7.26
-8.30
-9.27
-10.42
-11.87
-13.55
-15.19
-16.38
-16.70
-15.76
-13.42
-9.80
-5.31
-0.48
4.12
8.04
11.10
13.33
14.92
16.12
17.08
17.82
18.27
18.35
18.10
17.64
17.10
16.50
15.69
14.39
12.43
9.81
6.86
3.99
1.56
-0.42
-2.30
-4.56
-7.63
-11.54
-15.96
-20.36
-24.24
-27.34
-29.74
-31.70
-33.51
-35.39
-37.38
-39.35
-41.08
-42.19
-42.25
-40.86
-37.78
-33.05
-27.08
-20.47
-13.95
-8.09
-3.22
0.51
3.08
4.53
4.96
4.54
3.66
2.76
2.31
2.55
3.45
4.70
5.82
6.45
6.44
5.97
5.38
5.02
5.05
5.40
5.81
5.94
5.58
4.67
3.38
1.93
0.56
-0.64
-1.70
-2.73
-3.93
-5.40
-7.10
-8.76
-9.96
-10.18
-9.05
-6.51
-2.82
1.47
5.76
9.56
12.67
15.12
17.06
18.66
19.94
20.82
21.20
21.04
20.43
19.59
18.74
18.07
17.64
17.43
17.39
17.46
17.64
17.90
18.15
18.23
17.88
16.86
15.04
12.57
9.78
7.09
4.81
3.06
1.69
0.49
-0.75
-2.11
-3.59
-5.15
-6.79
-8.44
-9.86
-10.60
-10.03
-7.68
-3.48
2.14
8.33
14.27
19.42
23.74
27.54
31.20
34.90
38.46
41.40
43.19
43.56
42.62
40.96
39.42
38.81
39.49
41.16
42.93
43.71
42.72
39.86
35.66
30.93
26.19
21.46
16.19
9.73
1.59
-8.36
-20.19
-33.97
-49.88
-67.92
-87.47
-107.26
-125.54
-140.59
-151.17
-156.70
-157.12
-152.69
-143.89
-131.46
-116.50
-100.44
-84.73
-70.48
-58.17
-47.59
-38.19
-29.39
-20.95
-12.99
-5.92
-0.03
4.57
8.18
11.28
14.34
17.67
21.33
25.18
29.02
32.68
35.99
38.79
40.86
41.92
41.79
40.47
38.25
35.56
32.92
30.69
29.00
27.71
26.43
24.69
22.17
18.83
15.03
11.45
8.89
7.97
8.99
11.75
15.75
20.29
24.67
28.35
30.99
32.44
32.76
32.16
30.93
29.42
27.89
26.47
25.16
23.86
22.46
20.90
19.21
17.43
15.74
14.22
12.98
12.02
11.30
10.73
10.16
9.46
8.46
7.09
5.30
3.12
0.56
-2.33
-5.51
-8.87
-12.13
-14.85
-16.51
-16.60
-14.91
-11.57
-7.11
-2.23
2.38
6.27
9.23
11.32
12.65
13.36
13.56
13.31
12.74
11.98
11.19
10.52
10.03
9.74
9.59
9.54
9.50
9.40
9.14
8.58
7.62
6.22
4.46
2.53
0.68
-0.90
-2.21
-3.41
-4.83
-6.82
-9.51
-12.74
-16.00
-18.59
-19.80
-19.22
-16.82
-12.93
-8.10
-2.92
2.09
6.57
10.25
13.01
14.84
15.84
16.24
16.25
16.05
15.73
15.35
14.97
14.66
14.48
14.42
14.42
14.33
14.04
13.52
12.79
11.90
10.88
9.70
8.30
6.66
4.77
2.67
0.39
-2.01
-4.46
-6.88
-9.06
-10.82
-11.88
-12.05
-11.20
-9.34
-6.73
-3.73
-0.84
1.55
3.16
3.93
3.94
3.43
2.68
1.99
1.67
1.98
3.13
5.13
7.76
10.60
13.07
14.68
15.15
14.50
13.06
11.36
9.90
9.01
8.70
8.64
8.40
7.56
5.96
3.70
1.12
-1.35
-3.47
-5.18
-6.68
-8.27
-10.23
-12.58
-15.15
-17.55
-19.31
-20.04
-19.53
-17.76
-14.90
-11.23
-7.13
-2.97
0.90
4.20
6.77
8.57
9.70
10.28
10.44
10.29
9.97
9.62
9.44
9.60
10.18
11.08
12.03
12.66
12.70
12.10
11.01
9.75
8.57
7.62
6.83
6.03
5.01
3.64
1.96
0.05
-1.93
-3.86
-5.61
-7.15
-8.44
-9.53
-10.55
-11.75
-13.37
-15.55
-18.21
-20.98
-23.19
-24.14
-23.23
-20.26
-15.51
-9.64
-3.52
2.05
6.50
9.57
11.28
11.84
11.55
10.80
9.98
9.43
9.39
9.91
10.89
12.01
12.96
13.45
13.38
12.85
12.05
11.21
10.45
9.77
9.07
8.22
7.14
5.88
4.52
3.16
1.84
0.49
-0.98
-2.63
-4.39
-6.12
-7.59
-8.63
-9.23
-9.51
-9.80
-10.51
-11.97
-14.29
-17.27
-20.39
-22.96
-24.32
-24.03
-22.03
-18.58
-14.21
-9.50
-4.95
-0.96
2.28
4.65
6.19
7.07
7.52
7.86
8.28
8.88
9.59
10.31
10.91
11.42
11.86
12.30
12.72
13.01
13.07
12.83
12.29
11.50
10.48
9.17
7.50
5.46
3.16
0.78
-1.44
-3.35
-4.87
-6.08
-7.07
-8.00
-8.95
-10.03
-11.28
-12.75
-14.45
-16.31
-18.17
-19.73
-20.65
-20.57
-19.32
-16.95
-13.81
-10.35
-7.01
-4.05
-1.48
0.75
2.69
4.28
5.37
5.86
5.84
5.63
5.53
5.74
6.20
6.61
6.66
6.21
5.33
4.26
3.27
2.46
1.82
1.22
0.62
0.02
-0.53
-0.95
-1.26
-1.58
-2.13
-3.10
-4.59
-6.56
-8.85
-11.26
-13.58
-15.63
-17.27
-18.39
-18.75
-18.15
-16.42
-13.62
-9.99
-6.02
-2.21
1.01
3.40
4.93
5.71
5.96
5.90
5.71
5.51
5.31
5.11
4.92
4.81
4.94
5.47
6.45
7.73
9.01
9.92
10.14
9.55
8.24
6.44
4.42
2.44
0.59
-1.06
-2.60
-4.08
-5.59
-7.27
-9.22
-11.53
-14.21
-17.08
-19.74
-21.66
-22.28
-21.29
-18.74
-15.00
-10.69
-6.39
-2.52
0.74
3.31
5.20
6.41
6.96
6.90
6.38
5.57
4.70
3.93
3.39
3.15
3.27
3.75
4.51
5.37
6.09
6.47
6.34
5.64
4.39
2.72
0.78
-1.23
-3.14
-4.78
-6.09
-7.06
-7.82
-8.58
-9.56
-10.90
-12.50
-14.05
-15.00
-14.80
-13.07
-9.81
-5.47
-0.81
3.30
6.24
7.79
8.14
7.75
7.14
6.67
6.51
6.65
6.95
7.26
7.40
7.25
6.79
6.06
5.23
4.50
3.94
3.45
2.83
1.84
0.36
-1.53
-3.60
-5.55
-7.18
-8.42
-9.41
-10.41
-11.70
-13.51
-15.94
-18.93
-22.22
-25.41
-27.98
-29.43
-29.29
-27.36
-23.75
-18.92
-13.60
-8.56
-4.41
-1.44
0.42
1.50
2.20
2.82
3.49
4.18
4.80
5.29
5.67
6.06
6.60
7.41
8.42
9.44
10.18
10.41
10.03
9.15
7.98
6.72
5.48
4.31
3.13
1.89
0.63
-0.56
-1.58
-2.41
-3.28
-4.38
-5.92
-7.86
-9.83
-11.30
-11.71
-10.77
-8.58
-5.63
-2.53
0.22
2.40
4.08
5.46
6.72
7.93
9.07
10.03
10.73
11.12
11.17
10.91
10.45
9.89
9.39
9.00
8.64
8.20
7.58
6.77
5.89
5.03
4.23
3.37
2.24
0.70
-1.20
-3.24
-5.18
-6.92
-8.56
-10.36
-12.48
-14.81
-16.95
-18.29
-18.34
-16.91
-14.17
-10.59
-6.74
-3.10
0.04
2.60
4.63
6.22
7.41
8.14
8.35
8.03
7.34
6.59
6.10
6.08
6.54
7.23
7.88
8.28
8.32
8.05
7.49
6.67
5.53
4.05
2.25
0.22
-1.92
-4.06
-6.14
-8.16
-10.13
-12.15
-14.30
-16.57
-18.76
-20.49
-21.26
-20.62
-18.39
-14.73
-10.09
-5.07
-0.26
3.89
7.16
9.45
10.82
11.37
11.24
10.61
9.68
8.65
7.73
7.08
6.76
6.73
6.86
6.98
7.01
6.94
6.78
6.56
6.24
5.70
4.87
3.78
2.53
1.34
0.36
-0.34
-0.93
-1.70
-2.99
-5.04
-7.86
-11.15
-14.39
-16.93
-18.20
-17.82
-15.71
-12.13
-7.56
-2.63
2.05
6.00
8.98
10.94
12.02
12.40
12.23
11.63
10.75
9.76
8.90
8.37
8.26
8.42
8.65
8.69
8.42
7.91
7.29
6.66
6.00
5.17
3.99
2.38
0.36
-1.93
-4.30
-6.58
-8.61
-10.29
-11.64
-12.80
-14.00
-15.49
-17.38
-19.43
-21.17
-21.94
-21.24
-18.90
-15.12
-10.45
-5.47
-0.71
3.50
7.02
9.80
11.84
13.15
13.73
13.62
12.88
11.60
9.94
8.16
6.54
5.32
4.54
4.08
3.64
2.95
1.93
0.75
-0.29
-0.88
-0.95
-0.71
-0.52
-0.82
-1.87
-3.65
-5.84
-7.94
-9.41
-9.91
-9.47
-8.42
-7.39
-6.98
-7.58
-9.17
-11.37
-13.44
-14.60
-14.25
-12.17
-8.57
-4.07
0.61
4.78
8.07
10.45
12.08
13.18
13.93
14.37
14.56
14.58
14.55
14.62
14.82
15.09
15.25
15.15
14.64
13.63
12.23
10.61
9.00
7.61
6.51
5.66
4.90
4.06
3.00
1.70
0.22
-1.32
-2.78
-4.00
-4.87
-5.33
-5.48
-5.58
-6.01
-7.16
-9.16
-11.79
-14.50
-16.50
-17.11
-15.93
-13.03
-8.86
-4.10
0.57
4.64
7.86
10.21
11.81
12.77
13.17
13.00
12.30
11.27
10.19
9.38
9.04
9.11
9.31
9.26
8.72
7.71
6.49
5.43
4.75
4.45
4.31
4.00
3.27
2.04
0.41
-1.41
-3.16
-4.69
-5.88
-6.79
-7.47
-8.03
-8.60
-9.29
-10.22
-11.46
-13.01
-14.72
-16.32
-17.36
-17.40
-16.13
-13.50
-9.76
-5.44
-1.16
2.52
5.21
6.81
7.50
7.59
7.39
7.12
6.84
6.51
6.12
5.75
5.53
5.58
5.88
6.28
6.50
6.33
5.72
4.81
3.78
2.76
1.78
0.74
-0.44
-1.77
-3.10
-4.27
-5.13
-5.73
-6.22
-6.89
-7.99
-9.63
-11.74
-14.02
-16.02
-17.27
-17.37
-16.15
-13.68
-10.28
-6.45
-2.70
0.58
3.24
5.29
6.89
8.16
9.14
9.79
10.04
9.87
9.40
8.78
8.13
7.54
6.99
6.45
5.96
5.64
5.61
5.89
6.35
6.70
6.60
5.81
4.26
2.18
-0.15
-2.35
-4.22
-5.71
-6.95
-8.16
-9.48
-10.97
-12.50
-13.85
-14.67
-14.63
-13.51
-11.22
-7.93
-3.96
0.23
4.15
7.36
9.59
10.75
11.02
10.67
10.07
9.51
9.12
8.88
8.61
8.16
7.50
6.72
5.97
5.38
4.91
4.46
3.87
3.08
2.14
1.12
0.08
-0.99
-2.14
-3.41
-4.74
-6.02
-7.18
-8.24
-9.36
-10.78
-12.60
-14.77
-17.00
-18.86
-19.86
-19.64
-18.03
-15.12
-11.25
-6.92
-2.67
1.08
4.11
6.39
8.05
9.22
10.03
10.50
10.63
10.38
9.77
8.88
7.88
6.95
6.30
6.03
6.10
6.35
6.49
6.30
5.62
4.48
2.98
1.26
-0.56
-2.38
-4.14
-5.82
-7.40
-8.92
-10.47
-12.15
-14.05
-16.17
-18.44
-20.64
-22.47
-23.60
-23.71
-22.60
-20.27
-16.96
-13.04
-8.93
-4.98
-1.46
1.46
3.64
4.98
5.55
5.53
5.27
5.14
5.40
6.10
7.08
8.10
8.89
9.28
9.18
8.63
7.74
6.67
5.61
4.65
3.82
2.98
1.98
0.69
-0.92
-2.74
-4.57
-6.16
-7.37
-8.15
-8.65
-9.15
-9.97
-11.33
-13.18
-15.12
-16.58
-17.05
-16.32
-14.60
-12.31
-9.96
-7.92
-6.41
-5.63
-5.82
-7.17
-9.62
-12.58
-15.04
-15.85
-14.30
-10.39
-5.01
0.55
5.04
7.80
8.84
8.63
7.82
6.86
5.98
5.18
4.53
4.14
4.21
4.83
5.83
6.75
6.98
6.08
4.02
1.26
-1.33
-2.86
-2.75
-0.91
2.32
6.44
11.07
16.07
21.49
27.52
34.16
41.24
48.33
54.89
60.37
64.51
67.38
69.37
71.03
72.73
74.38
75.36
74.65
71.31
64.83
55.42
43.80
31.01
17.88
4.90
-7.74
-19.90
-31.26
-41.27
-49.28
-54.86
-58.03
-59.28
-59.27
-58.59
-57.51
-55.97
-53.88
-51.30
-48.59
-46.12
-44.09
-42.28
-40.10
-36.92
-32.31
-26.34
-19.48
-12.44
-5.89
-0.29
4.05
6.90
8.08
7.47
5.14
1.45
-3.00
-7.56
-11.64
-14.96
-17.54
-19.59
-21.32
-22.82
-23.97
-24.53
-24.33
-23.40
-22.00
-20.53
-19.42
-18.87
-18.87
-19.17
-19.44
-19.45
-19.13
-18.54
-17.73
-16.72
-15.35
-13.41
-10.64
-7.00
-2.64
2.00
6.35
9.84
12.06
12.93
12.64
11.60
10.25
8.94
7.87
7.10
6.68
6.71
7.31
8.54
10.24
12.02
13.29
13.50
12.35
9.98
6.97
4.06
1.83
0.48
-0.22
-0.82
-1.78
-3.40
-5.62
-8.23
-10.93
-13.45
-15.50
-16.80
-17.08
-16.15
-14.02
-10.96
-7.42
-3.91
-0.79
1.76
3.76
5.29
6.46
7.29
7.78
8.01
8.06
8.10
8.27
8.65
9.25
10.04
10.93
11.83
12.72
13.56
14.26
14.69
14.71
14.24
13.32
12.16
11.06
10.27
9.88
9.75
9.62
9.21
8.38
7.16
5.74
4.42
3.56
3.58
4.84
7.52
11.48
16.31
21.42
26.30
30.67
34.54
38.17
41.80
45.59
49.46
53.19
56.54
59.35
61.61
63.46
65.20
67.10
69.38
72.01
74.81
77.46
79.63
80.99
81.22
80.04
77.20
72.60
66.28
58.42
49.17
38.47
26.11
11.70
-5.01
-23.95
-44.48
-65.49
-85.51
-103.00
-116.66
-125.63
-129.69
-129.24
-125.23
-118.88
-111.48
-104.08
-97.35
-91.54
-86.59
-82.22
-78.08
-73.86
-69.33
-64.38
-59.01
-53.34
-47.55
-41.85
-36.41
-31.31
-26.57
-22.20
-18.20
-14.65
-11.67
-9.42
-7.95
-7.27
-7.20
-7.53
-8.10
-8.79
-9.59
-10.53
-11.62
-12.73
-13.61
-13.86
-13.10
-10.99
-7.41
-2.54
3.20
9.15
14.72
19.41
22.99
25.38
26.60
26.73
25.83
24.05
21.71
19.21
16.98
15.29
14.21
13.56
13.15
12.80
12.48
12.17
11.81
11.27
10.35
8.99
7.25
5.42
3.79
2.50
1.44
0.33
-1.14
-3.21
-5.87
-9.01
-12.36
-15.55
-18.12
-19.50
-19.14
-16.67
-12.14
-6.06
0.71
7.25
12.88
17.28
20.51
22.77
24.31
25.24
25.60
25.40
24.78
23.97
23.22
22.73
22.53
22.58
22.72
22.79
22.62
22.05
20.96
19.28
17.08
14.49
11.78
9.15
6.73
4.50
2.35
0.16
-2.11
-4.46
-6.89
-9.42
-12.10
-14.86
-17.41
-19.27
-19.91
-18.93
-16.27
-12.28
-7.62
-2.95
1.25
4.82
7.85
10.55
13.08
15.43
17.48
19.05
20.09
20.68
21.04
21.32
21.54
21.44
20.65
18.78
15.65
11.40
6.48
1.57
-2.71
-5.86
-7.64
-8.02
-7.21
-5.53
-3.44
-1.37
0.29
1.39
1.99
2.30
2.63
3.23
4.14
5.25
6.32
7.18
7.78
8.31
9.09
10.46
12.64
15.57
18.89
22.09
24.71
26.45
27.30
27.51
27.30
26.83
26.09
24.93
23.33
21.47
19.71
18.49
18.15
18.63
19.56
20.33
20.39
19.45
17.59
15.17
12.54
9.97
7.44
4.78
1.86
-1.30
-4.40
-7.03
-8.81
-9.57
-9.45
-8.91
-8.58
-9.06
-10.73
-13.56
-17.14
-20.78
-23.74
-25.41
-25.49
-23.98
-21.12
-17.29
-12.87
-8.29
-3.90
-0.08
2.91
4.89
5.89
6.15
6.01
5.85
5.89
6.18
6.56
6.82
6.75
6.32
5.63
4.86
4.17
3.58
3.02
2.31
1.37
0.13
-1.31
-2.86
-4.43
-5.98
-7.53
-9.07
-10.66
-12.31
-14.11
-16.07
-18.12
-19.98
-21.21
-21.31
-19.87
-16.80
-12.39
-7.20
-1.94
2.75
6.47
9.08
10.64
11.31
11.31
10.79
9.94
8.91
7.84
6.85
6.04
5.44
5.07
4.89
4.89
5.04
5.25
5.37
5.26
4.79
3.91
2.67
1.16
-0.53
-2.32
-4.22
-6.24
-8.41
-10.80
-13.41
-16.19
-18.89
-21.08
-22.15
-21.55
-18.98
-14.56
-8.88
-2.85
2.57
6.59
8.80
9.24
8.29
6.52
4.51
2.66
1.22
0.24
-0.30
-0.46
-0.22
0.48
1.73
3.61
6.08
9.00
12.17
15.32
18.23
20.70
22.61
23.78
24.08
23.42
21.95
20.04
18.31
17.29
17.21
17.81
18.51
18.64
17.85
16.27
14.42
12.90
12.15
12.24
12.95
13.99
15.15
16.36
17.63
18.92
20.04
20.72
20.63
19.57
17.50
14.54
10.91
6.78
2.29
-2.51
-7.57
-12.84
-18.16
-23.34
-28.18
-32.53
-36.39
-39.82
-42.90
-45.68
-48.15
-50.23
-51.77
-52.61
-52.52
-51.37
-49.18
-46.25
-43.08
-40.23
-38.07
-36.55
-35.28
-33.65
-31.13
-27.51
-22.97
-17.94
-12.87
-8.11
-3.82
-0.01
3.37
6.34
8.91
11.05
12.72
13.93
14.69
15.09
15.30
15.50
15.85
16.34
16.83
17.07
16.85
16.12
14.98
13.64
12.29
10.98
9.64
8.15
6.51
4.80
3.14
1.62
0.17
-1.42
-3.33
-5.68
-8.38
-11.19
-13.78
-15.79
-16.90
-16.91
-15.75
-13.56
-10.60
-7.27
-3.92
-0.85
1.78
3.92
5.58
6.82
7.68
8.16
8.28
8.06
7.56
6.83
6.02
5.28
4.71
4.32
4.02
3.61
2.95
2.01
0.91
-0.13
-0.85
-1.13
-1.00
-0.63
-0.30
-0.23
-0.59
-1.46
-2.89
-4.94
-7.61
-10.77
-14.05
-16.88
-18.52
-18.41
-16.29
-12.42
-7.50
-2.40
2.12
5.62
8.07
9.70
10.77
11.45
11.75
11.59
10.94
9.85
8.55
7.29
6.31
5.70
5.43
5.36
5.36
5.36
5.31
5.19
4.90
4.30
3.20
1.51
-0.68
-3.14
-5.50
-7.50
-9.11
-10.54
-12.08
-13.93
-15.92
-17.60
-18.30
-17.41
-14.70
-10.43
-5.23
0.04
4.65
8.16
10.48
11.77
12.37
12.50
12.32
11.83
11.02
9.93
8.70
7.54
6.65
6.18
6.05
6.09
6.00
5.47
4.33
2.61
0.50
-1.64
-3.49
-4.87
-5.85
-6.69
-7.74
-9.27
-11.34
-13.86
-16.55
-19.10
-21.14
-22.27
-22.06
-20.24
-16.73
-11.89
-6.37
-1.01
3.53
6.92
9.25
10.85
12.04
12.97
13.56
13.67
13.21
12.27
11.11
10.06
9.40
9.23
9.48
9.91
10.23
10.16
9.53
8.32
6.63
4.68
2.60
0.51
-1.56
-3.62
-5.70
-7.80
-9.95
-12.19
-14.64
-17.33
-20.18
-22.82
-24.67
-25.01
-23.32
-19.50
-13.98
-7.55
-1.14
4.50
8.99
12.27
14.50
15.82
16.38
16.28
15.76
15.07
14.52
14.32
14.47
14.80
15.07
15.05
14.67
14.02
13.24
12.44
11.61
10.56
9.07
6.96
4.21
1.05
-2.13
-4.96
-7.18
-8.78
-10.00
-11.21
-12.76
-14.80
-17.18
-19.46
-21.06
-21.47
-20.35
-17.68
-13.71
-8.89
-3.75
1.24
5.73
9.56
12.64
14.93
16.33
16.76
16.25
15.03
13.53
12.22
11.41
11.09
10.94
10.58
9.83
8.79
7.79
7.15
6.87
6.64
6.01
4.69
2.75
0.53
-1.45
-2.89
-3.82
-4.61
-5.73
-7.54
-10.07
-12.98
-15.85
-18.27
-20.05
-21.18
-21.70
-21.55
-20.59
-18.55
-15.34
-11.14
-6.40
-1.75
2.30
5.50
7.94
9.80
11.27
12.30
12.75
12.51
11.69
10.64
9.82
9.57
9.95
10.72
11.47
11.83
11.62
10.86
9.67
8.16
6.42
4.45
2.32
0.11
-2.06
-4.06
-5.81
-7.29
-8.56
-9.80
-11.23
-13.12
-15.60
-18.61
-21.76
-24.40
-25.77
-25.25
-22.62
-18.17
-12.57
-6.65
-1.11
3.63
7.51
10.60
13.05
14.88
16.05
16.50
16.30
15.56
14.51
13.35
12.25
11.34
10.68
10.25
10.00
9.84
9.67
9.36
8.76
7.70
6.09
3.91
1.30
-1.44
-4.00
-6.16
-7.86
-9.21
-10.46
-11.80
-13.43
-15.42
-17.62
-19.74
-21.24
-21.55
-20.20
-17.08
-12.51
-7.20
-2.00
2.48
5.91
8.36
10.06
11.20
11.87
12.06
11.81
11.26
10.68
10.33
10.37
10.77
11.32
11.80
12.05
12.06
11.92
11.75
11.52
11.15
10.40
9.02
6.88
4.01
0.63
-2.91
-6.21
-8.93
-10.93
-12.29
-13.30
-14.30
-15.65
-17.47
-19.68
-21.91
-23.66
-24.34
-23.52
-21.04
-17.07
-12.05
-6.60
-1.36
3.21
6.84
9.50
11.29
12.37
12.92
13.04
12.84
12.39
11.83
11.34
11.12
11.33
11.99
12.93
13.84
14.38
14.34
13.71
12.73
11.60
10.51
9.42
8.18
6.61
4.66
2.43
0.11
-2.12
-4.16
-5.96
-7.54
-8.93
-10.17
-11.39
-12.77
-14.53
-16.69
-19.00
-20.91
-21.66
-20.61
-17.47
-12.50
-6.37
-0.00
5.74
10.30
13.52
15.53
16.59
16.96
16.70
15.84
14.42
12.61
10.78
9.31
8.50
8.37
8.73
9.17
9.37
9.18
8.71
8.23
7.99
8.03
8.13
7.90
6.92
4.97
2.17
-1.06
-4.16
-6.66
-8.40
-9.52
-10.42
-11.54
-13.16
-15.33
-17.90
-20.52
-22.77
-24.20
-24.40
-23.10
-20.28
-16.15
-11.18
-5.94
-0.98
3.21
6.37
8.41
9.44
9.69
9.42
8.90
8.29
7.75
7.37
7.24
7.40
7.80
8.25
8.54
8.44
7.91
7.05
6.04
5.03
4.06
3.07
1.97
0.76
-0.53
-1.79
-2.98
-4.11
-5.29
-6.64
-8.26
-10.18
-12.38
-14.70
-16.90
-18.64
-19.50
-19.13
-17.31
-14.04
-9.61
-4.49
0.65
5.19
8.69
10.96
12.05
12.17
11.59
10.56
9.27
7.88
6.53
5.39
4.60
4.22
4.16
4.26
4.30
4.12
3.66
2.96
2.09
1.08
-0.09
-1.44
-2.95
-4.49
-5.90
-7.04
-7.93
-8.76
-9.83
-11.38
-13.46
-15.90
-18.23
-19.92
-20.45
-19.51
-17.07
-13.36
-8.82
-3.96
0.77
4.99
8.41
10.86
12.29
12.75
12.43
11.62
10.63
9.70
8.91
8.26
7.70
7.23
6.86
6.65
6.55
6.39
5.98
5.12
3.81
2.21
0.53
-1.07
-2.50
-3.84
-5.17
-6.56
-8.04
-9.62
-11.33
-13.32
-15.70
-18.51
-21.47
-24.10
-25.69
-25.64
-23.62
-19.71
-14.44
-8.57
-2.88
2.11
6.13
9.20
11.45
13.06
14.14
14.75
14.91
14.63
13.94
12.93
11.74
10.58
9.67
9.16
9.10
9.38
9.78
10.11
10.18
9.90
9.19
7.98
6.24
3.97
1.31
-1.57
-4.37
-6.88
-9.01
-10.86
-12.64
-14.56
-16.69
-18.85
-20.60
-21.37
-20.58
-17.94
-13.56
-7.97
-1.99
3.54
8.02
11.21
13.28
14.56
15.34
15.79
15.89
15.56
14.81
13.75
12.56
11.48
10.64
10.07
9.72
9.49
9.33
9.14
8.83
8.28
7.37
6.02
4.25
2.22
0.15
-1.74
-3.32
-4.57
-5.63
-6.68
-7.94
-9.59
-11.73
-14.32
-17.14
-19.70
-21.42
-21.70
-20.21
-17.02
-12.63
-7.71
-2.98
1.07
4.27
6.67
8.41
9.61
10.32
10.52
10.29
9.73
9.03
8.40
7.93
7.61
7.29
6.86
6.31
5.72
5.24
4.84
4.40
3.64
2.36
0.54
-1.62
-3.83
-5.83
-7.57
-9.17
-10.86
-12.83
-15.15
-17.70
-20.24
-22.41
-23.78
-23.97
-22.77
-20.15
-16.39
-11.88
-7.13
-2.57
1.47
4.76
7.22
8.84
9.66
9.78
9.32
8.50
7.56
6.83
6.52
6.76
7.40
8.17
8.72
8.82
8.40
7.50
6.20
4.59
2.70
0.57
-1.70
-4.03
-6.39
-8.90
-11.76
-15.13
-19.01
-23.08
-26.77
-29.34
-30.18
-29.02
-25.99
-21.62
-16.53
-11.32
-6.35
-1.74
2.47
6.17
9.15
11.15
12.01
11.89
11.19
10.47
10.16
10.42
11.10
11.80
12.11
11.76
10.74
9.28
7.70
6.35
5.35
4.62
3.88
2.79
1.10
-1.28
-4.22
-7.48
-10.76
-13.74
-16.02
-17.16
-16.70
-14.37
-10.26
-4.85
1.06
6.67
11.39
14.98
17.47
19.04
19.79
19.72
18.81
17.16
15.08
13.07
11.61
11.05
11.32
12.07
12.73
12.77
11.95
10.31
8.17
5.95
3.96
2.30
0.90
-0.52
-2.24
-4.55
-7.66
-11.65
-16.43
-21.68
-26.85
-31.10
-33.51
-33.26
-29.93
-23.66
-15.22
-5.81
3.28
11.03
16.93
21.02
23.70
25.47
26.64
27.30
27.33
26.64
25.26
23.41
21.49
19.90
18.97
18.74
19.05
19.55
19.85
19.65
18.75
17.08
14.64
11.44
7.55
3.12
-1.58
-6.22
-10.51
-14.30
-17.62
-20.55
-23.05
-24.80
-25.25
-23.84
-20.29
-14.76
-7.86
-0.52
6.30
11.86
15.71
17.78
18.26
17.49
15.85
13.67
11.28
8.91
6.80
5.23
4.38
4.37
5.05
6.08
7.01
7.42
7.12
6.10
4.54
2.66
0.63
-1.48
-3.62
-5.84
-8.16
-10.68
-13.51
-16.71
-20.21
-23.69
-26.57
-28.08
-27.56
-24.65
-19.46
-12.58
-4.90
2.59
9.09
14.15
17.73
20.05
21.41
22.02
21.97
21.23
19.88
18.11
16.28
14.81
13.92
13.64
13.76
13.90
13.77
13.23
12.34
11.25
10.11
8.91
7.61
6.15
4.56
2.96
1.48
0.11
-1.36
-3.28
-5.96
-9.46
-13.47
-17.44
-20.76
-23.03
-24.10
-23.99
-22.78
-20.58
-17.55
-13.96
-10.28
-6.99
-4.40
-2.47
-0.79
1.11
3.48
6.09
8.32
9.38
8.73
6.29
2.53
-1.67
-5.40
-7.99
-9.22
-9.32
-8.81
-8.22
-7.91
-8.01
-8.42
-8.99
-9.57
-10.06
-10.34
-10.30
-9.93
-9.35
-8.88
-8.91
-9.58
-10.69
-11.63
-11.72
-10.47
-8.00
-4.85
-1.89
0.26
1.38
1.70
1.64
1.53
1.43
1.22
0.78
0.19
-0.28
-0.32
0.29
1.51
3.05
4.55
5.69
6.33
6.47
6.19
5.61
4.80
3.79
2.51
0.80
-1.47
-4.42
-7.97
-11.88
-15.80
-19.46
-22.69
-25.46
-27.60
-28.75
-28.41
-26.08
-21.59
-15.23
-7.77
-0.22
6.52
11.83
15.48
17.52
18.26
18.07
17.37
16.53
15.81
15.37
15.27
15.49
16.03
16.81
17.73
18.53
18.92
18.63
17.55
15.77
13.57
11.27
9.04
6.90
4.72
2.42
0.01
-2.36
-4.51
-6.41
-8.21
-10.25
-12.76
-15.73
-18.70
-20.92
-21.57
-20.20
-16.87
-12.19
-7.02
-2.18
1.86
4.96
7.19
8.65
9.36
9.28
8.49
7.22
5.84
4.77
4.26
4.33
4.80
5.36
5.72
5.69
5.23
4.40
3.35
2.21
1.05
-0.08
-1.13
-2.01
-2.56
-2.71
-2.48
-2.15
-2.08
-2.68
-4.20
-6.70
-10.02
-13.79
-17.46
-20.29
-21.55
-20.70
-17.59
-12.69
-6.84
-1.01
4.02
7.89
10.67
12.62
13.98
14.83
15.11
14.82
14.09
13.15
12.28
11.68
11.43
11.41
11.52
11.62
11.59
11.31
10.67
9.65
8.23
6.50
4.61
2.73
0.93
-0.81
-2.66
-4.84
-7.51
-10.70
-14.24
-17.70
-20.46
-21.86
-21.43
-19.04
-14.98
-9.84
-4.33
0.88
5.40
9.06
11.82
13.72
14.80
15.09
14.73
13.88
12.86
11.90
11.22
10.88
10.84
10.92
10.92
10.62
9.91
8.79
7.38
5.87
4.39
3.00
1.66
0.25
-1.34
-3.20
-5.38
-7.94
-10.87
-14.04
-17.08
-19.40
-20.30
-19.17
-15.88
-10.77
-4.68
1.41
6.64
10.54
13.06
14.42
14.98
15.04
14.86
14.58
14.33
14.18
14.14
14.12
14.06
13.91
13.69
13.52
13.44
13.36
13.10
12.35
10.90
8.65
5.75
2.45
-0.87
-3.94
-6.60
-8.82
-10.73
-12.56
-14.56
-16.91
-19.53
-22.07
-23.85
-24.14
-22.36
-18.46
-12.85
-6.41
-0.16
5.10
8.95
11.39
12.68
13.19
13.22
12.95
12.52
12.02
11.55
11.19
10.91
10.63
10.25
9.69
8.96
8.19
7.53
7.12
6.95
6.94
6.92
6.69
6.10
5.06
3.54
1.58
-0.69
-3.13
-5.68
-8.32
-11.13
-14.08
-17.07
-19.74
-21.68
-22.45
-21.81
-19.79
-16.65
-12.82
-8.67
-4.52
-0.56
3.04
6.17
8.70
10.57
11.79
12.44
12.66
12.57
12.26
11.79
11.19
10.50
9.70
8.77
7.68
6.45
5.20
4.11
3.23
2.52
1.75
0.66
-0.85
-2.66
-4.46
-5.97
-7.15
-8.21
-9.53
-11.32
-13.60
-16.08
-18.39
-20.18
-21.17
-21.12
-19.79
-16.95
-12.55
-6.91
-0.68
5.20
9.83
12.62
13.47
12.76
11.09
9.11
7.25
5.77
4.66
3.85
3.30
2.95
2.82
2.87
3.09
3.40
3.78
4.12
4.29
4.21
3.74
2.85
1.54
-0.11
-2.05
-4.19
-6.43
-8.63
-10.57
-12.12
-13.22
-14.05
-14.86
-15.85
-16.97
-17.82
-17.84
-16.56
-13.90
-10.25
-6.36
-2.97
-0.52
0.96
1.80
2.44
3.15
3.96
4.74
5.31
5.62
5.75
5.83
5.93
6.08
6.20
6.26
6.26
6.24
6.21
6.17
6.07
5.83
5.34
4.50
3.23
1.47
-0.73
-3.30
-6.12
-9.17
-12.42
-15.80
-19.07
-21.77
-23.32
-23.16
-21.00
-16.99
-11.69
-5.90
-0.43
4.11
7.39
9.38
10.24
10.24
9.61
8.57
7.28
5.86
4.49
3.33
2.55
2.23
2.34
2.71
3.08
3.23
3.01
2.44
1.67
0.88
0.20
-0.40
-1.07
-2.05
-3.51
-5.52
-7.97
-10.62
-13.19
-15.37
-16.84
-17.36
-16.74
-14.92
-11.97
-8.16
-3.85
0.46
4.31
7.32
9.29
10.20
10.25
9.75
9.06
8.51
8.29
8.41
8.81
9.33
9.81
10.08
10.02
9.54
8.60
7.24
5.60
3.84
2.16
0.67
-0.61
-1.77
-3.01
-4.45
-6.18
-8.15
-10.30
-12.66
-15.23
-18.04
-20.85
-23.22
-24.51
-24.17
-21.96
-18.12
-13.29
-8.15
-3.34
0.86
4.41
7.35
9.68
11.32
12.16
12.18
11.59
10.68
9.74
8.99
8.48
8.15
7.90
7.67
7.44
7.20
6.89
6.40
5.59
4.39
2.85
1.14
-0.52
-1.98
-3.24
-4.40
-5.63
-7.08
-8.94
-11.31
-14.26
-17.81
-21.75
-25.56
-28.40
-29.39
-27.88
-23.77
-17.66
-10.60
-3.86
1.56
5.15
6.98
7.53
7.36
6.92
6.36
5.72
4.97
4.25
3.83
4.05
5.13
7.01
9.35
11.63
13.39
14.34
14.48
13.97
13.00
11.69
10.03
8.05
5.80
3.57
1.61
0.24
-0.44
-0.56
-0.42
-0.42
-0.93
-2.23
-4.46
-7.59
-11.33
-15.15
-18.35
-20.18
-20.07
-17.83
-13.73
-8.42
-2.77
2.43
6.70
9.87
12.08
13.52
14.36
14.64
14.37
13.61
12.53
11.40
10.46
9.85
9.53
9.39
9.24
9.05
8.81
8.65
8.56
8.45
8.07
7.16
5.55
3.32
0.74
-1.79
-3.90
-5.42
-6.42
-7.13
-7.86
-8.86
-10.31
-12.25
-14.66
-17.29
-19.70
-21.31
-21.52
-19.97
-16.71
-12.11
-6.81
-1.45
3.51
7.84
11.40
14.15
15.95
16.71
16.44
15.32
13.71
12.03
10.60
9.60
8.94
8.44
7.93
7.33
6.74
6.30
6.05
5.90
5.60
4.89
3.63
1.89
-0.12
-2.10
-3.83
-5.20
-6.18
-6.87
-7.45
-8.12
-9.10
-10.55
-12.42
-14.42
-16.04
-16.65
-15.75
-13.16
-9.11
-4.20
0.75
5.04
8.25
10.35
11.59
12.29
12.68
12.83
12.65
12.02
10.94
9.51
7.96
6.58
5.56
4.97
4.76
4.75
4.68
4.38
3.72
2.67
1.34
-0.22
-1.96
-3.85
-5.84
-7.83
-9.66
-11.23
-12.51
-13.63
-14.80
-16.18
-17.73
-19.14
-19.84
-19.26
-17.05
-13.24
-8.27
-2.83
2.38
6.81
10.14
12.36
13.59
14.05
13.97
13.57
13.03
12.45
11.87
11.25
10.48
9.49
8.25
6.90
5.65
4.73
4.29
4.25
4.42
4.44
3.98
2.83
1.02
-1.24
-3.62
-5.75
-7.44
-8.68
-9.69
-10.77
-12.27
-14.34
-16.88
-19.50
-21.62
-22.63
-22.09
-19.81
-15.99
-11.09
-5.78
-0.74
3.46
6.55
8.53
9.59
10.05
10.16
10.14
10.02
9.80
9.47
9.08
8.67
8.31
8.01
7.76
7.62
7.63
7.81
8.11
8.35
8.23
7.49
6.08
4.11
1.94
-0.09
-1.77
-3.11
-4.31
-5.66
-7.43
-9.71
-12.53
-15.69
-18.79
-21.21
-22.23
-21.26
-18.10
-13.14
-7.20
-1.35
3.52
6.93
8.92
9.85
10.17
10.23
10.13
9.82
9.28
8.56
7.84
7.35
7.22
7.38
7.63
7.69
7.34
6.53
5.42
4.24
3.14
2.17
1.27
0.32
-0.79
-2.10
-3.60
-5.28
-7.14
-9.23
-11.59
-14.22
-16.96
-19.52
-21.39
-22.00
-20.88
-17.89
-13.27
-7.68
-1.96
3.09
6.95
9.47
10.80
11.18
10.85
9.94
8.48
6.64
4.67
2.94
1.84
1.58
2.09
3.08
4.09
4.73
4.75
4.10
2.85
1.16
-0.78
-2.83
-4.83
-6.70
-8.44
-10.15
-12.02
-14.15
-16.45
-18.54
-19.81
-19.58
-17.45
-13.44
-8.06
-2.16
3.39
7.98
11.33
13.50
14.71
15.19
15.04
14.32
13.09
11.48
9.76
8.17
6.97
6.24
5.95
5.90
5.91
5.79
5.41
4.74
3.73
2.48
1.06
-0.40
-1.78
-3.04
-4.23
-5.51
-7.09
-9.15
-11.82
-15.01
-18.44
-21.53
-23.61
-24.02
-22.42
-18.89
-13.95
-8.36
-2.91
1.85
5.63
8.43
10.37
11.58
12.24
12.54
12.63
12.62
12.56
12.44
12.28
12.14
12.09
12.19
12.31
12.26
11.79
10.77
9.19
7.20
4.98
2.65
0.30
-2.01
-4.20
-6.15
-7.80
-9.22
-10.70
-12.59
-15.16
-18.34
-21.70
-24.44
-25.73
-24.99
-22.07
-17.39
-11.71
-5.91
-0.68
3.62
6.98
9.60
11.72
13.47
14.85
15.79
16.24
16.25
15.93
15.44
14.88
14.26
13.51
12.57
11.45
10.22
9.00
7.89
6.87
5.82
4.55
2.88
0.80
-1.50
-3.68
-5.30
-6.11
-6.13
-5.69
-5.35
-5.64
-6.89
-9.10
-11.92
-14.77
-16.95
-17.80
-16.81
-13.71
-8.58
-1.79
5.95
13.78
20.83
26.45
30.38
32.76
34.08
34.80
35.21
35.29
34.91
33.98
32.56
31.18
30.52
31.12
32.90
35.06
36.32
35.43
31.65
24.96
16.32
7.28
-0.64
-6.63
-10.91
-14.41
-18.45
-24.14
-32.26
-42.67
-54.13
-64.56
-71.59
-73.03
-67.63
-55.49
-37.43
-16.84
1.33
12.96
17.04
15.38
10.92
5.69
0.21
-5.79
-12.54
-19.25
-24.08
-25.07
-21.32
-13.40
-3.19
6.62
13.78
17.28
17.81
17.64
19.81
27.29
42.58
66.31
96.58
128.92
156.68
172.87
172.84
156.14
124.55
84.99
46.35
16.34
-0.92
-5.73
-1.80
5.96
13.08
16.54
14.93
8.14
-2.21
-12.87
-20.21
-22.04
-18.16
-11.72
-5.03
-0.20
0.51
-4.73
-17.13
-36.13
-60.59
-88.91
-119.69
-151.98
-186.02
-223.54
-266.77
-316.96
-372.58
-428.38
-475.60
-504.53
-507.80
-483.57
-436.22
-374.48
-308.08
-244.70
-188.55
-140.69
-100.67
-67.93
-42.52
-24.71
-14.23
-9.98
-10.25
-13.24
-17.03
-19.67
-19.29
-14.52
-4.88
8.93
25.28
42.07
57.34
69.72
78.47
83.45
85.21
85.04
85.16
88.41
97.60
114.58
139.69
171.66
208.08
246.11
282.96
316.06
343.06
361.90
371.10
370.07
359.30
340.20
314.66
284.54
251.49
216.99
182.47
149.46
119.36
93.10
70.81
51.90
35.32
20.14
5.98
-6.88
-17.73
-25.82
-30.76
-32.76
-32.47
-30.77
-28.40
-25.76
-22.98
-20.05
-16.99
-13.96
-11.19
-8.80
-6.79
-4.98
-3.19
-1.42
0.07
0.83
0.48
-1.15
-3.89
-7.35
-11.09
-14.73
-18.08
-21.05
-23.64
-25.89
-27.87
-29.67
-31.34
-32.87
-34.22
-35.30
-36.01
-36.22
-35.82
-34.59
-32.37
-28.99
-24.56
-19.41
-14.15
-9.43
-5.76
-3.26
-1.61
-0.18
1.75
4.65
8.61
13.20
17.63
20.94
22.29
21.21
17.79
12.68
6.94
1.75
-1.95
-3.75
-3.79
-2.61
-0.86
0.99
2.67
4.00
4.80
4.79
3.78
1.88
-0.44
-2.50
-3.79
-4.26
-4.38
-4.94
-6.62
-9.55
-13.19
-16.53
-18.48
-18.29
-15.87
-11.71
-6.64
-1.53
3.00
6.73
9.70
12.11
14.18
16.00
17.64
19.13
20.45
21.61
22.54
23.16
23.42
23.37
23.17
23.11
23.32
23.79
24.31
24.50
24.05
22.79
20.82
18.40
15.85
13.42
11.27
9.38
7.67
6.02
4.32
2.51
0.52
-1.71
-4.27
-7.30
-10.89
-15.01
-19.38
-23.45
-26.61
-28.29
-28.26
-26.60
-23.68
-19.90
-15.57
-10.85
-5.93
-1.07
3.29
6.67
8.77
9.59
9.51
9.16
9.13
9.74
10.98
12.56
14.02
14.99
15.29
14.96
14.18
13.16
12.09
11.08
10.20
9.42
8.61
7.49
5.69
2.93
-0.81
-5.16
-9.52
-13.18
-15.72
-17.06
-17.58
-17.78
-18.18
-19.01
-20.21
-21.50
-22.48
-22.76
-22.06
-20.25
-17.43
-13.87
-9.95
-6.04
-2.37
0.95
3.93
6.60
8.94
10.88
12.39
13.46
14.18
14.68
15.07
15.36
15.49
15.38
15.04
14.63
14.45
14.79
15.79
17.35
19.13
20.65
21.45
21.27
20.03
17.84
14.86
11.26
7.18
2.77
-1.74
-6.06
-9.88
-12.95
-15.17
-16.54
-17.11
-16.89
-15.82
-13.85
-11.03
-7.63
-4.06
-0.88
1.45
2.61
2.48
1.15
-1.06
-3.62
-5.88
-7.20
-7.18
-5.77
-3.29
-0.36
2.42
4.55
5.84
6.29
6.03
5.26
4.18
2.92
1.62
0.34
-0.93
-2.26
-3.66
-5.07
-6.37
-7.36
-7.89
-8.01
-7.91
-7.91
-8.36
-9.47
-11.24
-13.44
-15.68
-17.55
-18.69
-18.95
-18.28
-16.78
-14.59
-11.88
-8.84
-5.68
-2.63
0.07
2.25
3.86
4.95
5.68
6.20
6.59
6.84
6.83
6.51
5.87
5.05
4.25
3.67
3.45
3.60
4.09
4.81
5.63
6.39
6.90
6.92
6.30
4.98
3.11
0.98
-1.09
-2.83
-4.14
-5.09
-5.90
-6.78
-7.86
-9.15
-10.50
-11.71
-12.54
-12.81
-12.47
-11.60
-10.38
-9.04
-7.73
-6.53
-5.44
-4.36
-3.24
-2.12
-1.08
-0.26
0.20
0.25
-0.05
-0.54
-0.96
-1.05
-0.63
0.35
1.79
3.45
5.06
6.38
7.31
7.86
8.12
8.15
7.96
7.46
6.58
5.26
3.58
1.67
-0.26
-2.05
-3.70
-5.24
-6.75
-8.25
-9.65
-10.91
-12.04
-13.14
-14.32
-15.57
-16.65
-17.18
-16.76
-15.16
-12.50
-9.14
-5.59
-2.25
0.62
2.91
4.58
5.65
6.20
6.39
6.49
6.71
7.16
7.75
8.24
8.38
8.06
7.39
6.64
6.12
5.96
6.12
6.39
6.50
6.23
5.48
4.31
2.90
1.46
0.16
-0.97
-1.98
-3.04
-4.33
-5.98
-8.00
-10.19
-12.28
-13.98
-15.03
-15.30
-14.78
-13.51
-11.57
-9.08
-6.25
-3.30
-0.50
1.90
3.76
5.05
5.81
6.11
5.97
5.43
4.57
3.60
2.75
2.24
2.19
2.49
2.90
3.21
3.28
3.16
2.97
2.84
2.81
2.78
2.61
2.16
1.39
0.34
-0.86
-2.11
-3.38
-4.73
-6.30
-8.18
-10.37
-12.69
-14.82
-16.38
-17.00
-16.50
-14.96
-12.67
-10.06
-7.52
-5.27
-3.37
-1.74
-0.29
1.00
2.05
2.77
3.11
3.16
3.05
2.91
2.84
2.87
3.02
3.29
3.67
4.08
4.40
4.49
4.30
3.82
3.15
2.41
1.62
0.81
-0.04
-0.96
-1.87
-2.79
-3.75
-4.89
-6.38
-8.31
-10.58
-12.97
-15.18
-16.86
-17.75
-17.70
-16.67
-14.77
-12.19
-9.23
-6.20
-3.40
-1.00
0.92
2.39
3.50
4.35
4.97
5.37
5.45
5.16
4.52
3.66
2.81
2.23
2.07
2.36
3.00
3.79
4.56
5.17
5.51
5.50
5.04
4.04
2.48
0.45
-1.85
-4.15
-6.21
-7.89
-9.21
-10.33
-11.43
-12.64
-13.91
-15.01
-15.56
-15.20
-13.76
-11.23
-7.88
-4.12
-0.43
2.80
5.31
6.98
7.90
8.19
8.01
7.51
6.84
6.19
5.81
5.91
6.52
7.54
8.68
9.62
10.20
10.43
10.46
10.42
10.25
9.74
8.63
6.82
4.46
1.86
-0.63
-2.81
-4.70
-6.42
-8.14
-9.85
-11.42
-12.65
-13.35
-13.50
-13.19
-12.61
-11.91
-11.19
-10.41
-9.47
-8.28
-6.77
-5.00
-3.12
-1.33
0.22
1.44
2.41
3.22
3.95
4.63
5.23
5.69
6.05
6.36
6.71
7.20
7.83
8.49
9.01
9.16
8.76
7.71
6.07
4.05
1.93
-0.02
-1.65
-2.95
-4.03
-5.02
-6.06
-7.25
-8.63
-10.29
-12.24
-14.39
-16.41
-17.81
-18.03
-16.68
-13.76
-9.65
-5.05
-0.71
2.82
5.33
6.90
7.77
8.25
8.49
8.57
8.50
8.33
8.15
8.06
8.13
8.32
8.57
8.81
9.00
9.16
9.30
9.38
9.26
8.72
7.58
5.82
3.59
1.26
-0.84
-2.45
-3.55
-4.32
-5.04
-6.03
-7.46
-9.31
-11.35
-13.17
-14.31
-14.36
-13.12
-10.63
-7.24
-3.48
0.15
3.25
5.68
7.45
8.69
9.50
9.91
9.94
9.60
9.02
8.39
7.87
7.57
7.46
7.39
7.23
6.86
6.28
5.54
4.71
3.79
2.80
1.69
0.48
-0.80
-2.08
-3.28
-4.40
-5.50
-6.66
-7.98
-9.51
-11.23
-12.96
-14.42
-15.24
-15.07
-13.73
-11.26
-7.93
-4.15
-0.36
3.10
6.02
8.29
9.89
10.86
11.23
11.14
10.70
10.07
9.36
8.66
8.04
7.56
7.23
7.02
6.84
6.54
5.97
5.04
3.78
2.33
0.88
-0.40
-1.39
-2.14
-2.82
-3.70
-5.02
-6.88
-9.15
-11.43
-13.22
-14.03
-13.57
-11.83
-9.02
-5.58
-1.94
1.49
4.40
6.61
8.10
8.95
9.35
9.45
9.35
9.05
8.56
7.92
7.29
6.88
6.81
7.11
7.58
7.92
7.84
7.22
6.14
4.82
3.49
2.28
1.16
-0.02
-1.42
-3.16
-5.27
-7.71
-10.43
-13.30
-16.10
-18.47
-19.96
-20.10
-18.65
-15.65
-11.49
-6.73
-1.94
2.44
6.14
9.08
11.23
12.64
13.38
13.53
13.20
12.50
11.60
10.66
9.90
9.48
9.47
9.82
10.35
10.83
11.05
10.85
10.22
9.20
7.85
6.29
4.61
2.87
1.11
-0.71
-2.72
-4.99
-7.62
-10.54
-13.58
-16.41
-18.61
-19.78
-19.60
-17.94
-14.89
-10.80
-6.17
-1.53
2.67
6.16
8.83
10.72
11.93
12.56
12.74
12.59
12.23
11.81
11.44
11.21
11.14
11.14
11.09
10.88
10.48
10.01
9.54
9.15
8.74
8.11
6.97
5.19
2.84
0.20
-2.32
-4.42
-6.06
-7.42
-8.84
-10.59
-12.73
-15.06
-17.21
-18.73
-19.31
-18.78
-17.17
-14.66
-11.48
-7.86
-4.08
-0.37
3.00
5.80
7.91
9.32
10.11
10.44
10.49
10.44
10.38
10.39
10.47
10.59
10.73
10.84
10.94
10.96
10.88
10.61
10.09
9.26
8.15
6.87
5.55
4.32
3.18
2.04
0.73
-0.86
-2.82
-5.07
-7.44
-9.65
-11.35
-12.24
-12.08
-10.84
-8.67
-5.87
-2.82
0.08
2.56
4.45
5.70
6.38
6.61
6.54
6.37
6.23
6.18
6.20
6.17
5.99
5.66
5.27
4.98
4.91
5.03
5.18
5.08
4.48
3.27
1.52
-0.56
-2.67
-4.58
-6.17
-7.43
-8.51
-9.60
-10.87
-12.29
-13.67
-14.66
-14.89
-14.15
-12.39
-9.85
-6.85
-3.73
-0.74
1.93
4.18
5.89
6.99
7.50
7.52
7.29
7.03
6.85
6.80
6.82
6.88
6.98
7.21
7.61
8.16
8.72
9.06
9.02
8.53
7.67
6.57
5.31
3.91
2.35
0.59
-1.36
-3.44
-5.60
-7.81
-10.12
-12.61
-15.35
-18.29
-21.29
-24.09
-26.27
-27.42
-27.15
-25.31
-22.02
-17.71
-12.96
-8.29
-4.10
-0.51
2.46
4.86
6.67
7.86
8.42
8.46
8.19
7.89
7.79
8.01
8.52
9.20
9.86
10.35
10.53
10.30
9.63
8.57
7.21
5.70
4.13
2.53
0.92
-0.72
-2.31
-3.73
-4.85
-5.59
-5.98
-6.23
-6.61
-7.40
-8.76
-10.70
-12.99
-15.25
-17.00
-17.81
-17.47
-16.02
-13.73
-10.98
-8.04
-5.00
-1.86
1.43
4.78
7.97
10.68
12.62
13.61
13.64
12.84
11.45
9.76
8.00
6.40
5.11
4.22
3.77
3.78
4.23
5.03
6.05
7.07
7.83
8.13
7.81
6.85
5.27
3.16
0.65
-2.09
-4.84
-7.43
-9.71
-11.65
-13.30
-14.72
-15.94
-16.88
-17.33
-17.03
-15.79
-13.60
-10.68
-7.36
-4.07
-1.09
1.41
3.42
4.98
6.11
6.79
7.01
6.85
6.47
6.11
5.97
6.15
6.59
7.16
7.68
8.03
8.13
8.05
7.85
7.62
7.37
7.02
6.41
5.39
3.94
2.11
0.15
-1.73
-3.40
-4.91
-6.39
-8.00
-9.81
-11.76
-13.73
-15.56
-17.12
-18.23
-18.70
-18.27
-16.74
-14.12
-10.58
-6.58
-2.63
0.81
3.50
5.46
6.83
7.84
8.59
9.12
9.34
9.14
8.56
7.72
6.89
6.33
6.24
6.55
7.09
7.55
7.68
7.37
6.64
5.60
4.33
2.85
1.13
-0.86
-3.09
-5.40
-7.60
-9.52
-11.14
-12.53
-13.85
-15.22
-16.56
-17.59
-17.90
-17.06
-14.87
-11.48
-7.34
-3.09
0.66
3.58
5.58
6.83
7.58
7.96
8.00
7.66
6.93
5.92
4.87
4.03
3.53
3.36
3.34
3.25
2.97
2.47
1.81
1.06
0.24
-0.68
-1.72
-2.86
-4.01
-5.09
-6.10
-7.11
-8.26
-9.73
-11.55
-13.59
-15.51
-16.89
-17.26
-16.36
-14.16
-10.98
-7.29
-3.67
-0.55
1.89
3.69
5.02
6.03
6.80
7.28
7.42
7.24
6.81
6.32
5.90
5.68
5.69
5.90
6.17
6.38
6.38
6.04
5.31
4.19
2.78
1.19
-0.48
-2.13
-3.71
-5.20
-6.63
-8.01
-9.43
-10.96
-12.63
-14.35
-15.91
-16.97
-17.19
-16.34
-14.36
-11.45
-7.97
-4.40
-1.14
1.56
3.62
5.11
6.14
6.82
7.23
7.42
7.41
7.25
7.01
6.79
6.67
6.66
6.76
6.89
7.01
7.06
7.05
6.98
6.80
6.40
5.62
4.35
2.55
0.37
-1.93
-4.10
-5.97
-7.59
-9.18
-10.99
-13.07
-15.23
-17.04
-17.98
-17.67
-16.01
-13.26
-9.81
-6.13
-2.54
0.73
3.58
5.92
7.61
8.60
8.90
8.71
8.31
7.95
7.74
7.69
7.76
7.87
8.02
8.24
8.51
8.80
9.00
9.01
8.78
8.30
7.58
6.62
5.37
3.86
2.19
0.54
-0.89
-2.02
-2.88
-3.65
-4.56
-5.80
-7.44
-9.39
-11.44
-13.25
-14.44
-14.71
-13.88
-11.96
-9.19
-5.91
-2.44
0.91
3.96
6.60
8.76
10.38
11.44
11.98
12.09
11.90
11.55
11.12
10.69
10.28
9.95
9.72
9.64
9.69
9.83
9.97
9.99
9.77
9.23
8.29
6.99
5.38
3.56
1.66
-0.19
-1.85
-3.22
-4.28
-5.11
-5.88
-6.76
-7.92
-9.37
-10.97
-12.49
-13.64
-14.18
-13.94
-12.89
-11.08
-8.70
-5.99
-3.20
-0.55
1.84
3.91
5.64
7.04
8.06
8.73
9.07
9.19
9.21
9.22
9.25
9.30
9.32
9.32
9.29
9.25
9.16
8.98
8.67
8.20
7.61
6.91
6.11
5.16
3.98
2.54
0.91
-0.75
-2.26
-3.51
-4.54
-5.50
-6.63
-8.08
-9.89
-11.92
-13.89
-15.42
-16.17
-15.83
-14.33
-11.80
-8.64
-5.35
-2.35
0.12
2.09
3.70
5.07
6.22
7.06
7.45
7.38
6.97
6.43
5.99
5.77
5.78
5.95
6.17
6.39
6.59
6.82
7.12
7.45
7.73
7.78
7.45
6.65
5.41
3.88
2.28
0.79
-0.52
-1.68
-2.76
-3.86
-5.02
-6.29
-7.71
-9.31
-11.12
-13.06
-14.90
-16.24
-16.65
-15.77
-13.53
-10.23
-6.44
-2.79
0.23
2.41
3.84
4.74
5.32
5.69
5.83
5.71
5.33
4.83
4.41
4.24
4.35
4.63
4.82
4.70
4.21
3.51
2.88
2.60
2.76
3.27
3.79
3.95
3.47
2.24
0.43
-1.66
-3.63
-5.14
-6.09
-6.56
-6.83
-7.25
-8.08
-9.38
-10.97
-12.53
-13.67
-14.08
-13.54
-11.99
-9.54
-6.42
-2.99
0.34
3.23
5.46
6.96
7.81
8.14
8.15
7.98
7.70
7.35
6.99
6.65
6.45
6.45
6.66
7.00
7.25
7.19
6.68
5.79
4.80
4.07
3.88
4.25
4.89
5.34
5.12
4.03
2.17
-0.11
-2.40
-4.39
-6.04
-7.48
-8.96
-10.65
-12.52
-14.40
-15.97
-16.93
-17.08
-16.41
-14.97
-12.95
-10.54
-7.89
-5.16
-2.50
-0.05
2.04
3.65
4.77
5.50
5.96
6.32
6.69
7.16
7.76
8.50
9.37
10.35
11.37
12.35
13.19
13.82
14.26
14.54
14.72
14.77
14.61
14.14
13.29
12.11
10.72
9.27
7.84
6.41
4.89
3.17
1.18
-1.13
-3.68
-6.35
-8.94
-11.09
-12.45
-12.73
-11.81
-9.85
-7.27
-4.54
-2.08
-0.14
1.30
2.41
3.35
4.20
4.93
5.41
5.55
5.32
4.84
4.29
3.85
3.66
3.70
3.90
4.19
4.50
4.79
4.97
4.91
4.43
3.44
1.96
0.14
-1.78
-3.54
-5.01
-6.15
-7.00
-7.65
-8.15
-8.58
-9.05
-9.72
-10.75
-12.26
-14.22
-16.45
-18.65
-20.41
-21.36
-21.21
-19.85
-17.40
-14.14
-10.52
-6.99
-3.92
-1.48
0.36
1.74
2.86
3.85
4.73
5.48
6.11
6.66
7.24
7.95
8.80
9.70
10.47
10.97
11.15
11.06
10.83
10.54
10.19
9.62
8.70
7.32
5.56
3.64
1.84
0.40
-0.63
-1.39
-2.14
-3.17
-4.65
-6.55
-8.64
-10.62
-12.12
-12.90
-12.83
-11.86
-10.05
-7.55
-4.55
-1.37
1.63
4.12
5.89
6.94
7.50
7.84
8.20
8.64
9.09
9.38
9.38
9.11
8.66
8.21
7.85
7.60
7.39
7.15
6.83
6.43
5.99
5.48
4.86
4.04
2.92
1.45
-0.34
-2.33
-4.33
-6.19
-7.86
-9.32
-10.68
-11.95
-13.03
-13.69
-13.65
-12.75
-11.00
-8.67
-6.11
-3.71
-1.66
-0.02
1.30
2.41
3.40
4.30
5.08
5.75
6.30
6.80
7.26
7.74
8.23
8.73
9.20
9.53
9.65
9.43
8.84
7.89
6.62
5.12
3.45
1.73
0.06
-1.43
-2.66
-3.62
-4.41
-5.17
-6.13
-7.48
-9.28
-11.44
-13.68
-15.54
-16.61
-16.54
-15.31
-13.15
-10.49
-7.76
-5.28
-3.18
-1.46
-0.10
0.96
1.77
2.45
3.09
3.79
4.56
5.27
5.79
6.00
5.90
5.64
5.38
5.26
5.28
5.31
5.17
4.71
3.84
2.63
1.25
-0.11
-1.25
-2.15
-2.90
-3.71
-4.75
-6.11
-7.71
-9.40
-10.99
-12.27
-13.08
-13.23
-12.61
-11.16
-9.00
-6.41
-3.74
-1.35
0.51
1.80
2.63
3.19
3.60
3.93
4.12
4.11
3.85
3.37
2.84
2.42
2.26
2.37
2.61
2.81
2.84
2.61
2.19
1.64
1.03
0.37
-0.34
-1.13
-2.02
-3.06
-4.33
-5.86
-7.66
-9.59
-11.41
-12.81
-13.50
-13.38
-12.48
-10.96
-9.01
-6.78
-4.39
-1.93
0.42
2.47
4.02
4.97
5.38
5.40
5.26
5.10
4.97
4.80
4.55
4.20
3.81
3.48
3.30
3.28
3.34
3.37
3.31
3.14
2.93
2.72
2.53
2.31
1.99
1.46
0.70
-0.30
-1.58
-3.18
-5.13
-7.39
-9.81
-12.06
-13.75
-14.53
-14.20
-12.83
-10.67
-8.11
-5.52
-3.18
-1.22
0.41
1.85
3.24
4.62
5.93
7.01
7.72
8.01
8.00
7.90
7.95
8.26
8.79
9.38
9.81
9.90
9.60
8.94
8.09
7.16
6.28
5.41
4.48
3.43
2.24
1.01
-0.14
-1.11
-1.93
-2.69
-3.61
-4.81
-6.33
-8.11
-10.02
-11.92
-13.62
-14.94
-15.65
-15.58
-14.64
-12.87
-10.45
-7.67
-4.79
-2.06
0.30
2.15
3.39
3.96
3.97
3.57
3.06
2.71
2.74
3.21
3.96
4.75
5.27
5.36
5.01
4.38
3.77
3.46
3.64
4.33
5.37
6.46
7.31
7.62
7.25
6.20
4.61
2.73
0.81
-0.93
-2.42
-3.70
-4.93
-6.27
-7.84
-9.62
-11.43
-12.97
-13.89
-13.91
-12.84
-10.76
-7.95
-4.85
-1.94
0.42
2.07
3.05
3.54
3.75
3.87
4.04
4.31
4.68
5.17
5.75
6.33
6.79
6.98
6.86
6.47
5.92
5.42
5.09
4.99
5.04
5.11
5.06
4.78
4.25
3.50
2.61
1.61
0.58
-0.47
-1.51
-2.59
-3.83
-5.42
-7.46
-9.90
-12.45
-14.57
-15.74
-15.58
-14.08
-11.52
-8.41
-5.24
-2.37
0.04
1.96
3.40
4.36
4.86
4.98
4.90
4.79
4.82
5.04
5.40
5.78
6.04
6.15
6.16
6.18
6.32
6.57
6.78
6.73
6.26
5.30
3.94
2.39
0.88
-0.44
-1.54
-2.51
-3.49
-4.63
-6.03
-7.77
-9.84
-12.11
-14.38
-16.32
-17.59
-17.91
-17.17
-15.42
-12.88
-9.86
-6.63
-3.44
-0.51
2.00
3.95
5.29
6.08
6.49
6.69
6.79
6.82
6.75
6.52
6.17
5.77
5.40
5.15
5.03
5.01
5.05
5.13
5.18
5.12
4.82
4.19
3.22
1.95
0.56
-0.81
-2.07
-3.20
-4.29
-5.42
-6.67
-8.08
-9.70
-11.48
-13.31
-14.95
-16.07
-16.31
-15.43
-13.43
-10.53
-7.17
-3.84
-0.90
1.45
3.17
4.38
5.19
5.68
5.91
5.92
5.75
5.49
5.22
5.02
4.98
5.10
5.37
5.74
6.11
6.40
6.53
6.45
6.13
5.58
4.78
3.77
2.59
1.27
-0.12
-1.52
-2.84
-3.99
-4.92
-5.71
-6.48
-7.45
-8.74
-10.29
-11.82
-12.85
-12.97
-11.93
-9.85
-7.12
-4.24
-1.64
0.48
2.11
3.41
4.51
5.45
6.17
6.61
6.74
6.61
6.33
6.02
5.76
5.60
5.54
5.53
5.57
5.60
5.61
5.55
5.37
4.98
4.34
3.44
2.33
1.15
0.06
-0.82
-1.51
-2.17
-3.04
-4.38
-6.26
-8.65
-11.41
-14.25
-16.88
-19.00
-20.33
-20.62
-19.69
-17.49
-14.18
-10.09
-5.71
-1.56
1.98
4.71
6.62
7.89
8.69
9.11
9.18
8.90
8.25
7.38
6.51
5.85
5.58
5.74
6.23
6.86
7.43
7.75
7.75
7.46
6.93
6.26
5.48
4.58
3.54
2.29
0.76
-1.09
-3.28
-5.78
-8.44
-11.05
-13.36
-15.11
-16.13
-16.33
-15.61
-13.87
-11.08
-7.27
-2.80
1.74
5.60
8.18
9.21
8.99
8.20
7.63
7.90
9.12
10.93
12.62
13.52
13.23
11.86
10.04
8.64
8.54
10.13
13.11
16.44
18.72
18.82
16.46
12.52
8.81
7.22
8.85
13.29
18.72
22.54
22.56
18.02
9.97
1.01
-5.42
-6.16
0.83
15.78
36.95
60.99
83.78
101.41
111.16
112.08
105.02
92.29
76.48
59.20
39.93
15.63
-17.83
-63.18
-118.97
-178.75
-232.77
-272.15
-293.00
-298.29
-295.84
-293.59
-294.94
-296.99
-292.75
-275.88
-244.69
-203.45
-160.02
-122.11
-94.08
-76.14
-65.66
-59.29
-54.51
-50.16
-46.17
-42.95
-40.98
-40.30
-40.27
-39.52
-36.19
-28.96
-17.67
-3.65
11.09
25.02
38.02
51.34
66.53
84.24
103.55
122.51
139.26
153.10
164.74
175.57
186.71
198.31
209.62
219.44
226.73
230.84
231.57
229.04
223.56
215.61
205.72
194.39
181.88
168.15
152.97
136.12
117.67
98.02
78.01
58.67
41.01
25.77
13.26
3.34
-4.41
-10.52
-15.39
-19.23
-22.04
-23.75
-24.38
-24.10
-23.19
-22.03
-20.90
-20.00
-19.38
-18.99
-18.76
-18.62
-18.52
-18.41
-18.22
-17.85
-17.22
-16.37
-15.40
-14.51
-13.92
-13.80
-14.15
-14.85
-15.61
-16.18
-16.38
-16.22
-15.83
-15.47
-15.32
-15.50
-16.00
-16.72
-17.55
-18.46
-19.48
-20.70
-22.09
-23.47
-24.47
-24.66
-23.74
-21.60
-18.37
-14.38
-9.98
-5.45
-1.00
3.18
6.86
9.76
11.71
12.68
12.86
12.59
12.25
12.12
12.29
12.73
13.30
13.88
14.39
14.79
15.09
15.21
15.07
14.56
13.67
12.45
11.07
9.70
8.44
7.24
5.92
4.24
2.04
-0.64
-3.60
-6.54
-9.11
-11.04
-12.12
-12.23
-11.30
-9.41
-6.76
-3.70
-0.69
1.81
3.47
4.13
3.92
3.09
2.00
0.97
0.22
-0.21
-0.36
-0.41
-0.52
-0.83
-1.44
-2.32
-3.39
-4.56
-5.73
-6.81
-7.77
-8.65
-9.53
-10.57
-11.91
-13.75
-16.22
-19.33
-22.90
-26.59
-29.96
-32.67
-34.67
-36.29
-38.18
-41.03
-45.37
-51.19
-57.96
-64.72
-70.26
-73.37
-73.03
-68.62
-60.09
-48.10
-33.96
-19.33
-5.78
5.73
15.03
22.67
29.48
36.15
42.93
49.68
56.01
61.65
66.45
70.39
73.42
75.40
76.14
75.55
73.76
71.09
68.02
64.95
62.13
59.64
57.38
55.24
53.13
50.98
48.72
46.24
43.39
40.07
36.32
32.34
28.43
24.90
21.90
19.43
17.43
15.88
14.85
14.50
14.92
15.97
17.28
18.32
18.57
17.69
15.59
12.36
8.17
3.21
-2.27
-7.96
-13.49
-18.50
-22.79
-26.37
-29.34
-31.83
-33.78
-34.99
-35.21
-34.29
-32.37
-29.80
-27.08
-24.56
-22.39
-20.52
-18.85
-17.33
-16.10
-15.37
-15.26
-15.71
-16.37
-16.68
-16.15
-14.48
-11.73
-8.25
-4.54
-1.04
1.99
4.56
6.80
8.88
10.90
12.88
14.72
16.37
17.90
19.42
21.10
23.02
25.07
27.00
28.44
29.09
28.80
27.69
26.00
24.04
22.02
20.01
17.97
15.84
13.61
11.31
8.97
6.62
4.21
1.61
-1.28
-4.52
-8.03
-11.62
-14.95
-17.69
-19.60
-20.59
-20.79
-20.43
-19.78
-19.01
-18.24
-17.47
-16.69
-15.92
-15.19
-14.55
-14.00
-13.57
-13.21
-12.84
-12.39
-11.78
-11.01
-10.18
-9.41
-8.81
-8.40
-8.05
-7.55
-6.73
-5.58
-4.24
-2.98
-2.08
-1.67
-1.80
-2.38
-3.33
-4.59
-6.13
-7.89
-9.76
-11.54
-13.00
-13.97
-14.40
-14.42
-14.23
-13.99
-13.80
-13.61
-13.35
-12.97
-12.56
-12.27
-12.23
-12.46
-12.78
-13.00
-12.89
-12.41
-11.67
-10.85
-10.14
-9.63
-9.29
-9.01
-8.71
-8.38
-8.09
-7.91
-7.89
-8.03
-8.28
-8.61
-9.06
-9.74
-10.80
-12.35
-14.35
-16.64
-18.96
-21.03
-22.66
-23.78
-24.48
-24.94
-25.32
-25.72
-26.11
-26.37
-26.31
-25.81
-24.85
-23.58
-22.25
-21.23
-20.88
-21.48
-23.07
-25.38
-27.90
-30.05
-31.40
-31.83
-31.62
-31.27
-31.31
-32.05
-33.53
-35.51
-37.69
-39.87
-42.04
-44.37
-47.05
-50.19
-53.71
-57.27
-60.32
-62.16
-62.14
-59.78
-54.93
-47.76
-38.70
-28.25
-16.82
-4.64
8.14
21.42
34.99
48.55
61.79
74.49
86.60
98.16
109.20
119.67
129.33
137.93
145.12
150.58
154.08
155.42
154.56
151.65
146.99
141.04
134.22
126.82
118.90
110.42
101.31
91.56
81.30
70.68
59.71
48.27
36.14
23.22
9.68
-3.96
-16.97
-28.61
-38.35
-46.03
-51.78
-55.88
-58.66
-60.35
-61.14
-61.25
-60.87
-60.26
-59.65
-59.17
-58.88
-58.76
-58.74
-58.68
-58.46
-57.93
-56.97
-55.60
-53.91
-52.11
-50.43
-48.98
-47.82
-46.88
-46.02
-45.13
-44.10
-42.89
-41.50
-40.04
-38.71
-37.80
-37.57
-38.09
-39.17
-40.38
-41.30
-41.67
-41.60
-41.35
-41.07
-40.50
-38.90
-35.43
-29.64
-21.95
-13.58
-6.18
-0.97
1.83
3.02
4.08
6.44
10.89
17.63
26.44
37.06
49.16
61.99
73.97
82.97
87.05
85.53
79.41
70.99
62.56
55.18
48.21
39.68
28.38
15.19
3.42
-2.70
-0.52
9.31
22.86
34.77
39.94
36.03
23.75
6.47
-11.03
-24.24
-30.21
-28.23
-20.00
-10.14
-4.11
-6.96
-21.08
-45.62
-77.45
-113.07
-149.79
-179.76
-195.52
-190.95
-164.79
-120.87
-66.45
-9.43
43.54
87.97
121.63
142.01
150.44
148.55
138.80
124.24
107.66
90.72
73.61
55.17
32.44
4.50
-29.99
-71.13
-117.08
-163.83
-205.66
-236.14
-249.92
-245.14
-223.87
-192.47
-158.80
-129.55
-108.22
-94.66
-86.01
-78.59
-69.86
-58.96
-46.93
-35.37
-25.48
-17.70
-11.90
-7.83
-5.53
-5.42
-8.04
-13.83
-22.61
-33.53
-45.53
-57.70
-69.52
-80.61
-90.28
-97.34
-100.42
-98.40
-90.93
-78.60
-62.62
-44.41
-25.14
-5.60
13.90
33.77
55.20
80.09
110.30
146.45
186.84
227.31
262.36
287.20
299.79
301.52
296.36
288.81
281.94
276.47
271.30
264.80
256.08
245.37
233.48
221.02
207.92
193.52
177.12
158.46
137.90
116.12
93.85
71.70
50.09
29.48
10.36
-6.87
-22.12
-35.57
-47.49
-57.84
-66.07
-71.31
-72.77
-70.24
-64.33
-56.43
-48.14
-40.80
-35.18
-31.39
-29.24
-28.55
-29.34
-31.75
-35.85
-41.38
-47.68
-53.79
-58.83
-62.22
-63.88
-64.14
-63.55
-62.54
-61.32
-59.91
-58.29
-56.49
-54.75
-53.30
-52.30
-51.66
-51.10
-50.26
-48.86
-46.84
-44.34
-41.71
-39.35
-37.58
-36.55
-36.16
-36.06
-35.79
-34.95
-33.32
-30.98
-28.23
-25.45
-23.00
-21.08
-19.81
-19.23
-19.36
-20.22
-21.76
-23.75
-25.78
-27.34
-27.88
-27.05
-24.83
-21.57
-17.80
-14.12
-10.88
-8.12
-5.69
-3.32
-0.87
1.64
3.98
5.98
7.58
8.87
10.07
11.27
12.38
13.16
13.34
12.83
11.87
10.89
10.38
10.63
11.54
12.73
13.70
14.11
13.84
13.02
11.76
10.04
7.69
4.47
0.41
-4.03
-7.96
-10.33
-10.35
-7.79
-3.07
2.98
9.43
15.60
21.14
25.92
29.83
32.60
33.82
33.15
30.47
26.01
20.31
14.12
8.16
3.01
-0.99
-3.75
-5.40
-6.16
-6.41
-6.56
-7.03
-8.16
-10.14
-12.90
-16.01
-18.64
-19.66
-18.02
-13.07
-4.92
5.58
17.21
28.78
39.65
49.71
59.17
68.10
76.15
82.72
87.23
89.64
90.55
90.90
91.44
92.30
92.82
91.92
88.64
82.65
74.44
65.07
55.63
46.76
38.40
29.93
20.64
10.20
-1.12
-12.57
-23.28
-32.76
-41.06
-48.78
-56.63
-65.08
-74.11
-83.20
-91.47
-98.06
-102.34
-104.04
-103.26
-100.33
-95.62
-89.45
-82.02
-73.47
-63.99
-53.94
-43.89
-34.59
-26.68
-20.42
-15.63
-11.63
-7.54
-2.57
3.62
10.82
18.41
25.62
31.82
36.64
40.02
42.03
42.71
42.02
39.88
36.20
30.96
24.32
16.57
8.14
-0.49
-8.89
-16.68
-23.65
-29.77
-35.24
-40.41
-45.77
-51.74
-58.55
-66.08
-73.80
-80.86
-86.41
-89.77
-90.65
-89.13
-85.42
-79.75
-72.27
-63.09
-52.52
-41.13
-29.73
-19.14
-10.04
-2.72
2.90
7.09
10.15
12.31
13.69
14.39
14.57
14.49
14.45
14.77
15.57
16.81
18.21
19.45
20.26
20.51
20.22
19.53
18.54
17.30
15.78
13.91
11.71
9.27
6.80
4.52
2.57
0.91
-0.68
-2.51
-4.84
-7.71
-10.89
-13.84
-15.94
-16.60
-15.48
-12.63
-8.38
-3.30
2.00
7.02
11.39
14.92
17.48
19.03
19.58
19.25
18.25
16.89
15.51
14.35
13.55
13.12
12.95
12.95
13.06
13.14
13.09
12.76
11.99
10.66
8.77
6.38
3.66
0.83
-1.90
-4.34
-6.34
-7.91
-9.21
-10.59
-12.47
-15.16
-18.62
-22.40
-25.67
-27.52
-27.30
-24.86
-20.59
-15.25
-9.65
-4.48
-0.17
3.09
5.29
6.52
7.05
7.21
7.38
7.78
8.46
9.23
9.87
10.18
10.16
9.92
9.61
9.33
9.06
8.69
8.13
7.35
6.39
5.39
4.43
3.63
2.99
2.39
1.62
0.35
-1.83
-5.22
-9.84
-15.33
-20.86
-25.39
-27.87
-27.64
-24.58
-19.16
-12.24
-4.83
2.24
8.46
13.72
18.21
22.21
25.95
29.48
32.63
35.21
37.04
38.16
38.85
39.53
40.63
42.37
44.72
47.28
49.48
50.72
50.51
48.57
44.89
39.65
33.18
25.97
18.53
11.37
4.85
-0.89
-5.94
-10.47
-14.59
-18.18
-20.88
-22.24
-21.98
-20.14
-17.15
-13.68
-10.37
-7.67
-5.78
-4.69
-4.27
-4.37
-4.79
-5.23
-5.41
-5.05
-4.05
-2.56
-0.93
0.46
1.37
1.79
1.94
2.03
2.23
2.48
2.62
2.52
2.16
1.64
1.09
0.51
-0.28
-1.58
-3.65
-6.52
-10.01
-13.69
-17.07
-19.65
-21.02
-20.97
-19.48
-16.76
-13.26
-9.51
-5.99
-3.03
-0.65
1.29
3.05
4.83
6.68
8.61
10.53
12.36
14.04
15.49
16.56
17.16
17.22
16.76
15.96
15.03
14.15
13.35
12.49
11.30
9.54
7.09
3.99
0.43
-3.35
-7.16
-10.81
-14.21
-17.29
-20.11
-22.78
-25.54
-28.54
-31.69
-34.59
-36.62
-37.26
-36.31
-34.02
-30.94
-27.59
-24.23
-20.76
-16.86
-12.19
-6.58
-0.07
7.15
14.78
22.48
29.84
36.45
42.03
46.51
50.09
53.11
55.89
58.60
61.20
63.56
65.57
67.19
68.48
69.38
69.74
69.20
67.38
63.99
58.92
52.27
44.33
35.42
25.84
15.85
5.72
-4.18
-13.41
-21.50
-28.05
-32.85
-35.90
-37.38
-37.56
-36.72
-35.12
-32.97
-30.47
-27.81
-25.15
-22.68
-20.61
-19.11
-18.31
-18.16
-18.41
-18.66
-18.53
-17.80
-16.49
-14.82
-13.04
-11.33
-9.77
-8.36
-7.19
-6.41
-6.20
-6.57
-7.30
-8.04
-8.44
-8.42
-8.19
-8.19
-8.76
-9.99
-11.55
-12.82
-13.21
-12.33
-10.25
-7.38
-4.29
-1.52
0.69
2.31
3.53
4.52
5.36
5.96
6.21
6.06
5.57
4.88
4.13
3.37
2.57
1.71
0.89
0.27
0.06
0.30
0.86
1.43
1.72
1.56
1.05
0.38
-0.21
-0.66
-1.04
-1.53
-2.29
-3.35
-4.62
-5.99
-7.33
-8.54
-9.55
-10.28
-10.60
-10.40
-9.60
-8.27
-6.57
-4.76
-3.10
-1.77
-0.80
-0.08
0.56
1.23
1.93
2.51
2.77
2.60
2.03
1.30
0.73
0.56
0.86
1.46
2.07
2.43
2.40
2.00
1.38
0.70
0.06
-0.50
-1.00
-1.49
-1.99
-2.55
-3.25
-4.15
-5.25
-6.44
-7.51
-8.20
-8.35
-7.92
-7.05
-5.88
-4.58
-3.22
-1.87
-0.63
0.36
0.99
1.22
1.17
1.03
0.98
1.05
1.18
1.22
1.06
0.69
0.18
-0.33
-0.72
-0.98
-1.13
-1.24
-1.36
-1.49
-1.63
-1.73
-1.78
-1.83
-1.97
-2.33
-2.95
-3.84
-4.85
-5.81
-6.51
-6.80
-6.63
-5.98
-4.86
-3.30
-1.39
0.70
2.70
4.32
5.34
5.72
5.64
5.39
5.25
5.35
5.65
5.96
6.06
5.81
5.18
4.32
3.37
2.51
1.88
1.48
1.29
1.19
1.02
0.67
0.11
-0.65
-1.52
-2.41
-3.25
-4.02
-4.68
-5.21
-5.63
-6.00
-6.42
-7.05
-7.99
-9.20
-10.49
-11.49
-11.79
-11.12
-9.49
-7.15
-4.59
-2.25
-0.44
0.77
1.53
2.04
2.47
2.88
3.24
3.56
3.86
4.21
4.68
5.32
6.06
6.83
7.55
8.14
8.60
8.89
9.00
8.86
8.47
7.77
6.77
5.44
3.81
1.88
-0.28
-2.52
-4.69
-6.55
-8.00
-9.00
-9.67
-10.18
-10.72
-11.40
-12.25
-13.30
-14.56
-16.05
-17.75
-19.55
-21.17
-22.23
-22.36
-21.36
-19.25
-16.28
-12.86
-9.37
-6.09
-3.14
-0.52
1.78
3.71
5.18
6.11
6.51
6.57
6.63
7.00
7.82
8.94
10.01
10.63
10.61
9.98
9.02
8.08
7.38
6.95
6.69
6.41
6.00
5.44
4.81
4.18
3.62
3.13
2.68
2.21
1.65
0.98
0.17
-0.73
-1.63
-2.41
-3.02
-3.53
-4.13
-5.02
-6.39
-8.20
-10.22
-12.06
-13.24
-13.41
-12.45
-10.52
-8.00
-5.39
-3.17
-1.59
-0.69
-0.24
0.06
0.51
1.26
2.24
3.26
4.02
4.35
4.15
3.53
2.67
1.82
1.21
0.93
0.99
1.33
1.83
2.36
2.78
2.96
2.80
2.32
1.56
0.67
-0.15
-0.80
-1.25
-1.57
-1.87
-2.28
-2.83
-3.47
-4.11
-4.60
-4.88
-4.93
-4.82
-4.70
-4.74
-5.12
-5.94
-7.20
-8.74
-10.28
-11.47
-11.99
-11.64
-10.39
-8.41
-5.97
-3.41
-0.98
1.14
2.89
4.27
5.34
6.16
6.81
7.35
7.83
8.26
8.60
8.76
8.67
8.32
7.80
7.31
7.08
7.21
7.67
8.22
8.53
8.32
7.49
6.17
4.67
3.32
2.38
1.96
1.98
2.26
2.58
2.71
2.50
1.88
0.91
-0.28
-1.53
-2.71
-3.75
-4.67
-5.55
-6.49
-7.55
-8.69
-9.78
-10.54
-10.65
-9.88
-8.19
-5.85
-3.24
-0.85
0.96
2.12
2.77
3.18
3.60
4.19
4.87
5.56
6.07
6.35
6.39
6.29
6.22
6.31
6.65
7.22
7.86
8.40
8.66
8.60
8.25
7.72
7.09
6.41
5.64
4.78
3.88
3.00
2.27
1.71
1.29
0.88
0.38
-0.28
-1.06
-1.94
-2.91
-4.02
-5.34
-6.85
-8.40
-9.68
-10.30
-9.96
-8.56
-6.27
-3.47
-0.66
1.73
3.43
4.42
4.85
4.95
4.91
4.76
4.46
3.92
3.17
2.40
1.90
1.89
2.42
3.29
4.15
4.69
4.70
4.26
3.52
2.69
1.91
1.25
0.64
0.06
-0.52
-1.12
-1.69
-2.22
-2.71
-3.25
-3.91
-4.76
-5.78
-6.88
-7.91
-8.77
-9.41
-9.85
-10.10
-10.05
-9.56
-8.48
-6.85
-4.88
-2.93
-1.30
-0.14
0.69
1.41
2.21
3.16
4.13
4.92
5.37
5.42
5.15
4.76
4.43
4.33
4.52
4.96
5.50
5.98
6.27
6.35
6.27
6.12
5.89
5.47
4.71
3.53
1.95
0.21
-1.44
-2.79
-3.76
-4.43
-4.94
-5.40
-5.90
-6.46
-7.11
-7.84
-8.59
-9.20
-9.45
-9.12
-8.09
-6.39
-4.23
-1.91
0.23
1.97
3.18
3.92
4.32
4.51
4.59
4.55
4.30
3.77
2.99
2.08
1.19
0.52
0.17
0.13
0.32
0.64
0.98
1.31
1.58
1.76
1.80
1.62
1.15
0.32
-0.82
-2.10
-3.30
-4.22
-4.71
-4.84
-4.79
-4.79
-5.09
-5.74
-6.73
-7.92
-9.14
-10.19
-10.83
-10.91
-10.31
-9.06
-7.27
-5.13
-2.91
-0.84
0.90
2.22
3.10
3.64
3.96
4.21
4.50
4.86
5.26
5.63
5.89
5.97
5.85
5.50
4.99
4.41
3.90
3.61
3.60
3.81
4.12
4.36
4.36
3.98
3.14
1.86
0.27
-1.43
-3.00
-4.27
-5.20
-5.94
-6.76
-7.88
-9.40
-11.21
-13.05
-14.61
-15.58
-15.76
-15.04
-13.44
-11.12
-8.37
-5.57
-3.09
-1.20
0.01
0.57
0.64
0.37
-0.10
-0.65
-1.20
-1.70
-2.10
-2.43
-2.71
-2.93
-3.05
-2.96
-2.54
-1.80
-0.81
0.26
1.20
1.87
2.21
2.23
1.95
1.42
0.65
-0.27
-1.23
-2.12
-2.87
-3.53
-4.30
-5.39
-6.96
-8.88
-10.73
-11.91
-11.91
-10.56
-8.07
-5.04
-2.07
0.40
2.29
3.78
5.10
6.37
7.53
8.47
9.07
9.39
9.53
9.60
9.62
9.49
9.17
8.63
8.00
7.41
6.94
6.59
6.26
5.84
5.22
4.40
3.44
2.42
1.43
0.49
-0.41
-1.32
-2.35
-3.58
-5.06
-6.73
-8.40
-9.75
-10.44
-10.20
-9.06
-7.20
-4.98
-2.72
-0.57
1.46
3.42
5.33
7.11
8.61
9.72
10.39
10.65
10.56
10.13
9.36
8.26
6.93
5.52
4.21
3.14
2.37
1.87
1.53
1.23
0.80
0.15
-0.78
-1.97
-3.33
-4.75
-6.16
-7.55
-8.95
-10.39
-11.86
-13.23
-14.31
-14.91
-14.86
-14.09
-12.62
-10.59
-8.16
-5.52
-2.87
-0.36
1.84
3.62
4.91
5.70
6.06
6.11
6.01
5.93
6.03
6.40
7.02
7.76
8.44
8.89
9.08
9.07
9.03
9.14
9.47
10.01
10.56
10.90
10.77
10.03
8.70
7.04
5.45
4.29
3.72
3.51
3.17
2.16
0.30
-2.20
-4.72
-6.61
-7.52
-7.45
-6.79
-5.88
-5.04
-4.57
-5.00
-7.16
-11.85
-19.25
-28.73
-39.09
-49.11
-58.45
-67.80
-78.27
-90.18
-102.22
-111.56
-115.42
-112.92
-105.91
-98.25
-93.55
-92.98
-94.26
-92.69
-83.22
-63.13
-33.05
4.25
45.42
87.58
127.95
162.26
184.22
187.49
167.84
125.84
67.96
4.68
-53.39
-99.49
-132.36
-154.39
-167.30
-170.80
-162.86
-141.66
-107.74
-64.80
-18.69
25.31
65.16
104.15
146.98
195.56
246.43
291.26
320.35
326.75
309.30
265.30
201.66
132.32
72.25
29.82
4.52
-9.07
-16.35
-20.30
-22.12
-21.93
-21.64
-24.61
-32.59
-44.70
-56.21
-60.20
-51.20
-28.10
5.75
41.89
69.46
81.26
76.89
62.29
45.83
34.25
30.41
33.61
41.38
50.72
60.32
70.88
84.56
103.44
128.02
156.50
184.98
208.44
222.34
223.98
212.75
189.90
158.10
119.77
79.68
43.21
14.35
-6.07
-20.89
-35.97
-57.98
-91.56
-136.99
-189.38
-240.44
-281.29
-305.88
-312.96
-306.35
-293.23
-280.63
-272.42
-268.02
-263.91
-256.20
-243.20
-226.03
-207.18
-188.40
-169.48
-148.79
-125.14
-99.59
-75.33
-56.11
-44.11
-38.83
-37.40
-36.13
-32.18
-24.54
-13.88
-1.74
10.31
21.23
30.52
38.02
43.65
47.43
49.41
49.67
48.31
45.36
40.96
35.61
30.18
25.84
23.62
24.03
26.84
31.15
35.76
39.65
42.29
43.64
44.06
43.99
43.77
43.47
42.97
42.04
40.52
38.45
36.13
34.00
32.34
30.98
29.33
26.61
22.35
16.64
10.23
4.15
-0.81
-4.38
-6.84
-8.61
-9.89
-10.56
-10.38
-9.40
-8.17
-7.53
-8.26
-10.48
-13.45
-15.87
-16.39
-14.26
-9.59
-3.31
3.25
8.91
13.00
15.51
16.88
17.69
18.37
19.04
19.56
19.73
19.50
19.10
18.90
19.23
20.13
21.36
22.45
23.03
22.95
22.33
21.48
20.66
19.92
19.14
18.13
16.71
14.90
12.84
10.73
8.64
6.51
4.04
1.06
-2.41
-5.97
-8.92
-10.45
-10.00
-7.54
-3.52
1.19
5.74
9.53
12.36
14.34
15.67
16.53
16.96
16.95
16.56
15.98
15.45
15.21
15.39
15.98
16.86
17.87
18.84
19.65
20.18
20.38
20.16
19.51
18.44
17.00
15.31
13.50
11.73
10.05
8.44
6.70
4.58
1.86
-1.54
-5.41
-9.30
-12.56
-14.49
-14.61
-12.76
-9.26
-4.76
-0.07
4.12
7.40
9.71
11.24
12.21
12.79
13.04
12.98
12.60
12.03
11.32
10.54
9.67
8.70
7.68
6.76
6.14
5.98
6.37
7.22
8.32
9.42
10.38
11.16
11.86
12.60
13.40
14.16
14.62
14.45
13.36
11.17
7.88
3.63
-1.23
-6.11
-10.27
-12.96
-13.59
-11.99
-8.48
-3.76
1.29
5.91
9.59
12.08
13.36
13.52
12.78
11.45
9.93
8.65
7.94
7.95
8.61
9.72
11.00
12.19
13.09
13.58
13.61
13.21
12.48
11.53
10.43
9.22
7.86
6.34
4.70
3.04
1.57
0.47
-0.20
-0.54
-0.84
-1.47
-2.71
-4.62
-6.98
-9.37
-11.28
-12.30
-12.27
-11.25
-9.49
-7.25
-4.76
-2.17
0.37
2.72
4.75
6.30
7.31
7.78
7.83
7.67
7.52
7.53
7.70
7.96
8.18
8.28
8.28
8.26
8.29
8.34
8.30
7.96
7.25
6.20
4.98
3.77
2.68
1.68
0.64
-0.55
-1.90
-3.38
-4.90
-6.38
-7.83
-9.24
-10.61
-11.87
-12.88
-13.49
-13.54
-12.98
-11.85
-10.24
-8.29
-6.15
-3.92
-1.69
0.41
2.23
3.60
4.36
4.50
4.09
3.31
2.40
1.55
0.90
0.51
0.39
0.53
0.85
1.23
1.48
1.45
1.04
0.21
-0.96
-2.31
-3.68
-4.91
-5.92
-6.66
-7.14
-7.36
-7.39
-7.32
-7.30
-7.53
-8.13
-9.10
-10.27
-11.39
-12.15
-12.33
-11.86
-10.81
-9.31
-7.49
-5.46
-3.31
-1.17
0.82
2.47
3.67
4.38
4.62
4.50
4.09
3.44
2.61
1.71
0.92
0.47
0.55
1.14
2.14
3.31
4.50
5.55
6.33
6.64
6.28
5.21
3.60
1.90
0.59
-0.03
0.03
0.41
0.75
0.72
0.21
-0.82
-2.33
-4.35
-6.71
-9.10
-11.03
-11.99
-11.77
-10.47
-8.48
-6.25
-4.07
-2.05
-0.19
1.43
2.68
3.37
3.38
2.80
1.87
0.93
0.25
-0.06
-0.04
0.17
0.40
0.61
0.80
1.07
1.50
2.06
2.70
3.26
3.62
3.67
3.37
2.80
2.05
1.29
0.61
0.02
-0.50
-0.98
