1560719006.00
64.000000
-0.00
-0.00
-0.00
-0.00
-0.00
-0.00
-0.00
-0.00
-0.00
-0.00
0.00
0.01
0.01
-0.00
-0.03
-0.05
-0.05
0.00
0.13
0.36
0.66
1.01
1.37
1.72
2.06
2.41
2.80
3.27
3.85
4.52
5.22
5.91
6.58
7.23
7.93
8.75
9.75
11.02
12.49
14.05
15.58
17.03
18.45
20.00
21.89
24.28
27.39
31.03
34.95
38.86
42.59
46.24
50.14
54.73
60.35
67.41
75.56
84.33
93.14
101.68
110.05
118.77
128.58
140.04
153.73
169.19
185.66
202.29
218.57
234.57
250.97
269.16
287.89
309.48
334.58
363.32
394.54
425.37
451.51
468.37
472.63
463.45
443.28
415.98
385.88
356.16
328.27
302.26
277.72
254.51
232.85
213.37
195.94
179.94
164.48
148.86
132.94
117.17
102.39
89.30
78.36
69.24
61.25
53.61
45.78
37.67
29.59
22.11
15.69
10.62
6.70
3.52
0.58
-2.46
-5.68
-8.92
-11.89
-14.35
-16.14
-17.36
-18.21
-18.93
-19.69
-20.55
-21.44
-22.25
-22.86
-23.24
-23.41
-23.43
-23.40
-23.38
-23.38
-23.43
-23.49
-23.55
-23.60
-23.65
-23.69
-23.73
-23.77
-23.82
-23.87
-23.91
-23.96
-24.01
-24.07
-24.12
-24.18
-24.23
-24.29
-24.35
-24.41
-24.48
-24.55
-24.62
-24.70
-24.78
-24.85
-24.94
-25.02
-25.10
-25.18
-25.26
-25.33
-25.40
-25.46
-25.51
-25.56
-25.62
-25.66
-25.69
-25.70
-25.70
-25.70
-25.73
-25.82
-25.99
-26.22
-26.48
-26.71
-26.89
-27.01
-27.13
-27.31
-27.60
-28.02
-28.50
-28.94
-29.26
-29.45
-29.56
-29.73
-30.08
-30.68
-31.48
-32.38
-33.22
-33.86
-34.31
-34.68
-35.19
-36.09
-37.51
-39.44
-41.65
-43.79
-45.56
-46.84
-47.81
-48.94
-50.78
-53.70
-57.67
-62.20
-66.59
-70.20
-72.87
-75.05
-77.74
-81.91
-88.12
-96.12
-104.94
-113.35
-120.52
-126.63
-132.61
-139.83
-149.27
-160.93
-174.00
-187.67
-201.78
-217.07
-233.87
-251.15
-266.01
-274.63
-274.61
-267.15
-257.57
-253.16
-259.21
-275.96
-298.04
-317.58
-328.88
-332.40
-334.16
-341.54
-357.72
-378.89
-395.98
-400.08
-388.40
-366.18
-343.52
-329.10
-324.27
-322.52
-313.83
-291.66
-257.85
-221.77
-194.57
-182.06
-180.31
-178.12
-164.04
-133.78
-93.52
-56.84
-36.91
-38.62
-55.37
-72.81
-77.13
-63.02
-36.34
-10.97
-0.38
-9.83
-33.23
-56.88
-67.31
-58.51
-35.38
-10.42
3.54
0.64
-14.50
-30.11
-34.45
-23.02
-1.77
16.83
21.16
8.08
-14.11
-30.40
-27.82
-3.60
32.69
63.65
74.04
59.22
28.10
-2.21
-16.12
-8.31
13.97
35.03
40.35
24.79
-4.58
-32.96
-46.43
-39.60
-18.56
3.27
12.99
5.74
-12.48
-29.01
-32.35
-19.37
2.37
19.51
21.06
5.66
-16.59
-29.98
-22.57
5.97
43.56
71.69
75.88
54.09
18.15
-12.87
-22.99
-7.87
23.65
54.06
66.52
52.77
16.67
-28.63
-67.24
-87.58
-87.22
-72.52
-54.37
-42.10
-38.25
-38.32
-34.37
-21.12
-0.66
18.21
25.11
15.29
-5.72
-24.38
-26.89
-8.15
24.36
54.03
64.61
50.09
18.72
-11.61
-23.58
-10.46
20.41
51.46
65.22
53.73
22.76
-12.37
-35.63
-38.65
-24.86
-6.24
4.26
0.33
-14.16
-28.30
-31.20
-18.94
2.29
19.96
22.64
7.43
-17.24
-36.14
-36.09
-14.26
19.48
47.34
53.97
35.49
2.57
-25.53
-31.73
-11.17
26.18
60.39
72.99
56.99
20.62
-17.84
-40.51
-39.28
-19.82
2.89
13.71
6.16
-14.03
-33.26
-38.64
-26.04
-2.98
16.26
19.30
3.59
-21.13
-38.54
-35.42
-9.98
26.31
54.69
59.97
39.48
5.28
-22.52
-26.99
-4.15
34.99
69.90
82.06
64.75
26.50
-14.28
-39.52
-40.66
-22.84
-0.63
10.69
3.89
-16.19
-36.51
-43.95
-33.49
-11.59
7.95
12.48
-1.55
-25.58
-43.97
-43.36
-21.08
12.64
39.93
45.83
27.13
-5.07
-31.50
-35.65
-13.27
25.32
60.33
73.73
58.91
24.07
-12.92
-34.68
-33.34
-14.45
7.43
17.59
9.70
-10.58
-29.83
-35.27
-22.64
0.66
20.14
22.94
5.88
-21.78
-43.52
-45.13
-23.48
11.15
40.33
48.23
30.83
-1.14
-28.27
-33.49
-12.12
25.69
60.04
72.69
57.05
21.72
-14.94
-35.33
-32.00
-11.44
10.82
19.64
9.20
-13.65
-34.18
-38.97
-24.21
1.52
22.54
25.53
7.83
-20.11
-40.63
-39.26
-13.58
24.64
55.54
62.55
41.89
5.30
-26.53
-35.51
-16.53
20.17
54.36
67.48
52.76
18.74
-16.38
-35.22
-30.76
-9.93
11.53
18.64
6.10
-18.46
-39.60
-43.48
-26.39
2.35
25.99
30.17
11.65
-18.95
-43.19
-45.48
-22.53
14.33
45.10
52.73
32.95
-2.84
-34.15
-42.97
-24.25
11.71
44.91
57.35
43.00
11.04
-20.13
-33.63
-23.45
2.31
26.92
34.94
21.11
-6.37
-31.26
-38.86
-24.75
2.18
25.19
29.56
11.51
-18.89
-43.45
-46.46
-24.15
12.69
44.42
53.83
36.07
1.62
-29.82
-40.61
-25.38
6.55
36.49
47.58
34.37
5.77
-20.90
-30.26
-17.73
7.75
29.80
34.39
18.38
-8.22
-28.43
-28.49
-6.28
26.66
51.47
52.97
28.54
-9.47
-40.51
-46.89
-23.96
17.07
54.74
68.61
49.96
6.16
-44.00
-80.46
-92.37
-82.29
-63.09
-48.91
-46.31
-50.54
-49.43
-32.03
3.53
47.06
81.50
92.15
75.23
40.85
7.49
-8.14
-0.32
22.60
43.27
45.94
25.90
-7.14
-34.90
-41.32
-22.41
10.88
38.90
44.82
24.81
-9.29
-37.01
-41.27
-18.75
18.14
48.06
53.38
30.60
-7.52
-39.29
-46.63
-25.31
12.53
45.95
57.23
41.83
10.20
-19.21
-31.06
-21.84
-1.28
14.64
13.89
-4.31
-29.26
-45.78
-43.37
-22.68
4.99
24.60
26.09
10.22
-12.37
-27.85
-27.55
-13.24
4.59
13.29
6.36
-12.01
-29.68
-34.12
-20.51
5.04
28.48
36.51
24.46
-0.49
-23.79
-32.14
-21.34
1.34
21.21
25.00
8.50
-20.94
-48.75
-61.43
-53.71
-31.46
-7.88
4.00
-1.49
-19.38
-37.71
-44.50
-34.66
-13.28
7.93
17.22
9.84
-8.92
-27.01
-32.80
-21.97
-0.00
20.71
28.46
19.12
-0.95
-18.73
-21.99
-6.64
20.87
46.51
56.69
45.63
18.78
-10.47
-28.10
-26.65
-9.19
13.31
28.45
29.40
18.80
6.00
0.99
7.85
21.68
32.09
29.75
13.20
-9.05
-22.89
-17.16
9.11
45.00
72.63
76.83
53.45
12.54
-26.52
-44.50
-32.23
5.01
49.78
81.75
87.94
69.12
38.32
12.83
4.55
13.28
27.95
34.07
23.18
-1.30
-26.52
-38.21
-29.81
-7.27
14.90
22.25
9.56
-15.65
-37.49
-41.39
-22.94
9.16
37.61
46.68
31.21
-0.11
-29.77
-41.35
-28.81
0.60
30.24
43.85
34.36
7.42
-22.51
-40.75
-40.07
-24.42
-5.31
5.35
2.36
-9.77
-20.52
-20.31
-6.83
12.61
25.72
22.74
3.05
-23.29
-40.71
-37.48
-12.83
21.81
48.56
52.74
31.16
-5.79
-39.26
-51.41
-34.43
6.00
52.86
85.89
90.60
64.69
18.36
-30.95
-66.44
-79.94
-74.10
-59.36
-46.78
-41.13
-39.00
-32.74
-17.19
4.80
22.91
25.60
7.97
-23.24
-51.59
-59.40
-37.55
8.55
61.08
98.68
107.73
89.20
57.52
32.08
25.88
38.86
58.02
66.22
52.49
19.13
-20.02
-47.91
-53.87
-40.01
-18.76
-5.01
-6.86
-21.25
-36.38
-40.04
-27.66
-5.56
12.42
13.47
-6.26
-37.95
-64.21
-67.92
-41.62
7.75
61.55
98.63
106.06
85.53
51.74
23.88
14.71
24.32
40.53
47.49
35.76
8.52
-20.62
-36.06
-29.63
-5.80
21.65
38.19
37.49
24.93
13.91
16.80
37.01
66.52
90.50
96.54
82.04
57.07
38.96
43.00
73.87
123.03
173.17
207.56
218.86
212.40
202.13
201.83
216.79
240.86
259.95
260.85
239.47
204.35
172.58
160.90
176.95
215.13
259.83
293.40
304.26
291.43
262.92
229.85
200.28
175.55
151.15
120.91
81.12
33.96
-13.37
-51.82
-74.68
-81.16
-77.30
-73.83
-81.35
-104.96
-141.59
-181.23
-212.29
-228.06
-230.82
-230.30
-237.52
-257.46
-285.61
-310.40
-320.48
-311.95
-290.87
-269.48
-258.44
-259.70
-265.47
-264.04
-247.94
-219.75
-190.50
-172.71
-172.36
-184.06
-194.55
-190.67
-168.18
-134.86
-106.54
-97.41
-111.45
-139.76
-165.53
-173.79
-159.61
-131.62
-107.26
-103.73
-127.82
-172.43
-221.58
-259.49
-279.57
-286.03
-292.01
-310.46
-347.75
-398.35
-449.63
-491.06
-520.95
-548.23
-582.93
-632.54
-694.97
-760.92
-817.35
-857.13
-886.85
-924.40
-990.42
-1090.79
-1217.36
-1348.53
-1462.52
-1545.12
-1598.18
-1641.28
-1700.47
-1795.96
-1925.78
-2075.55
-2196.96
-2248.35
-2197.81
-2027.71
-1737.84
-1340.47
-905.16
-475.24
-76.39
279.82
585.80
836.66
1042.72
1204.73
1321.34
1392.83
1430.94
1448.05
1455.48
1458.15
1456.73
1448.31
1426.14
1386.16
1329.03
1266.07
1208.58
1164.33
1133.61
1111.51
1090.49
1062.16
1022.87
973.96
923.10
875.58
832.31
789.26
740.98
684.14
617.28
542.30
462.44
381.89
303.41
229.63
164.29
112.89
80.81
69.40
75.69
92.61
112.23
128.43
139.52
148.62
161.76
186.39
225.73
279.09
342.37
409.79
475.91
536.80
589.99
633.77
666.61
685.77
689.68
678.20
652.47
615.04
568.81
516.13
458.45
399.26
337.64
272.46
203.67
132.68
62.16
-4.69
-65.03
-116.94
-159.49
-193.41
-219.46
-238.30
-250.42
-256.13
-255.82
-250.26
-240.20
-225.80
-208.17
-188.02
-165.65
-140.76
-112.54
-79.95
-42.37
0.15
46.47
93.85
139.04
178.81
211.02
234.65
249.67
256.18
254.76
246.01
230.06
207.05
177.27
141.44
99.80
54.72
3.74
-54.68
-118.97
-183.44
-239.31
-277.65
-291.66
-279.27
-243.04
-188.96
-123.23
-51.43
21.48
91.02
147.90
184.87
199.23
194.52
178.61
160.64
146.53
137.22
129.92
121.06
109.28
95.57
81.90
69.53
58.78
49.11
39.84
30.70
21.74
13.97
8.22
4.71
2.88
1.82
0.64
-1.17
-3.58
-6.29
-8.36
-9.16
-8.62
-7.26
-5.82
-4.99
-5.11
-6.18
-8.05
-10.46
-13.32
-16.95
-21.93
-28.62
-36.97
-46.36
-55.26
-63.01
-68.84
-72.55
-74.40
-75.00
-74.91
-74.28
-72.84
-70.09
-65.55
-59.02
-50.78
-41.76
-32.82
-24.69
-17.86
-12.44
-7.77
-2.46
5.47
17.91
35.70
57.67
81.20
102.60
118.47
126.88
127.85
123.21
115.61
108.44
102.07
96.35
90.25
82.36
71.39
56.88
39.35
19.69
0.13
-18.04
-33.87
-46.97
-57.10
-64.06
-67.61
-67.80
-65.24
-60.98
-56.51
-52.74
-50.08
-48.25
-46.61
-44.46
-41.44
-37.62
-33.35
-29.37
-26.12
-23.97
-22.51
-21.31
-19.94
-18.13
-15.89
-13.42
-11.10
-9.15
-7.71
-6.61
-5.70
-4.78
-3.70
-2.46
-1.10
0.20
1.36
2.30
3.08
3.73
4.30
4.86
5.41
5.94
6.43
6.86
7.19
7.47
7.68
7.82
7.91
7.96
7.97
7.94
7.88
7.80
7.70
7.58
7.43
7.25
7.02
6.73
6.39
5.99
5.53
5.00
4.42
3.76
3.03
2.22
1.35
0.39
-0.69
-1.91
-3.26
-4.68
-6.15
-7.53
-8.66
-9.24
-8.89
-7.15
-3.57
2.15
10.21
20.59
33.00
46.85
61.29
75.25
87.60
97.23
103.24
104.99
102.22
95.05
83.93
69.59
52.90
34.79
16.10
-2.48
-20.47
-37.60
-53.80
-69.22
-84.17
-99.01
-114.10
-129.82
-146.42
-164.21
-183.49
-204.50
-227.27
-251.81
-278.09
-305.89
-334.85
-364.40
-393.82
-421.97
-447.42
-468.50
-483.45
-490.57
-488.29
-476.16
-453.84
-421.37
-379.27
-328.48
-270.12
-205.21
-134.66
-58.97
21.40
105.79
193.19
282.01
369.96
453.99
530.39
594.07
640.44
667.14
672.12
654.17
613.28
550.91
470.15
375.50
272.25
166.45
63.94
-30.38
-112.37
-179.00
-228.27
-259.34
-272.57
-269.16
-251.05
-220.94
-182.31
-138.92
-94.43
-52.25
-15.33
14.46
36.22
50.25
57.74
60.40
60.15
58.67
56.98
55.66
55.12
55.70
57.97
62.63
70.22
80.65
92.66
104.03
112.07
114.60
110.79
101.65
89.86
78.75
70.75
66.65
65.35
63.25
57.93
48.81
38.01
29.80
28.80
38.28
58.70
87.49
119.85
150.01
172.27
181.98
176.33
155.46
123.21
87.10
56.58
39.71
39.84
53.47
71.18
81.80
77.69
58.37
30.81
5.32
-10.26
-14.85
-15.23
-21.79
-42.39
-77.60
-119.45
-156.29
-179.23
-187.16
-186.63
-187.19
-194.67
-207.54
-218.26
-218.97
-207.25
-187.97
-169.91
-159.44
-155.83
-150.96
-134.41
-100.03
-49.85
7.05
59.47
100.05
128.64
150.07
171.97
200.10
235.43
274.55
311.54
340.94
359.46
366.12
361.67
347.38
324.30
293.32
255.57
212.94
168.10
124.13
83.67
48.33
18.56
-6.45
-28.04
-47.37
-64.90
-80.37
-93.05
-102.35
-108.20
-111.15
-112.25
-112.63
-113.08
-113.84
-114.64
-114.92
-114.22
-112.34
-109.37
-105.65
-101.55
-97.31
-92.99
-88.55
-83.85
-78.84
-73.55
-68.07
-62.54
-57.09
-51.88
-47.00
-42.55
-38.55
-34.95
-31.60
-28.27
-24.76
-20.99
-17.04
-13.11
-9.55
-6.61
-4.29
-2.35
-0.15
2.69
6.34
10.58
14.90
18.58
21.09
22.41
23.09
24.10
26.37
30.28
35.49
40.91
45.17
47.05
46.17
43.04
38.78
34.28
29.90
24.90
17.97
7.74
-6.75
-25.85
-49.36
-76.34
-104.03
-128.67
-145.21
-148.92
-137.56
-112.97
-80.89
-48.95
-23.85
-8.28
-1.36
0.15
-0.47
-1.60
-3.41
-6.57
-10.99
-15.26
-17.31
-15.99
-11.82
-6.87
-3.78
-4.61
-9.47
-16.64
-23.34
-27.02
-26.73
-23.41
-19.50
-17.69
-19.90
-26.14
-34.78
-43.27
-49.06
-50.25
-45.81
-35.71
-21.27
-5.79
6.48
11.24
6.07
-7.72
-25.01
-38.56
-42.07
-32.56
-12.47
12.30
35.33
52.18
61.33
63.43
59.41
49.45
33.33
11.32
-14.84
-41.88
-65.92
-83.40
-92.25
-92.26
-84.71
-71.64
-54.89
-36.41
-17.39
1.52
19.76
36.58
50.93
61.70
68.21
70.34
68.71
64.56
59.28
54.15
49.85
46.69
44.24
42.00
39.55
36.64
33.34
29.91
26.63
23.72
21.32
19.40
17.90
16.65
15.34
13.73
11.62
9.07
6.36
3.98
2.42
1.96
2.45
3.24
3.47
2.44
0.00
-3.31
-6.41
-8.17
-7.95
-5.98
-3.41
-1.75
-2.21
-5.03
-9.31
-13.36
-15.50
-15.03
-12.34
-8.93
-6.31
-5.55
-6.80
-9.82
-14.53
-20.81
-27.48
-31.33
-27.63
-12.48
13.99
46.02
73.54
86.40
79.40
54.99
22.06
-8.48
-28.69
-36.66
-35.46
-30.31
-25.30
-21.86
-19.61
-18.38
-19.23
-23.67
-31.80
-40.74
-44.37
-35.83
-11.09
27.52
70.68
105.10
118.98
107.37
74.48
31.60
-8.10
-35.33
-47.65
-48.85
-45.41
-42.69
-42.73
-44.52
-45.96
-45.62
-43.84
-42.22
-42.26
-44.46
-48.01
-51.64
-54.38
-56.65
-59.60
-63.91
-68.28
-69.32
-62.73
-45.80
-19.38
11.82
40.98
62.19
72.74
73.85
69.20
62.73
56.80
51.90
47.56
43.46
40.06
38.18
38.32
39.98
41.85
42.51
40.90
37.22
32.59
28.72
27.04
28.13
31.37
35.22
37.94
38.34
36.42
33.26
30.72
30.14
32.10
35.89
40.03
43.26
45.19
46.43
47.61
48.58
48.28
45.89
41.82
38.02
36.70
38.26
40.34
38.32
28.09
8.75
-16.16
-40.22
-57.24
-64.27
-62.73
-56.71
-50.55
-46.75
-45.60
-46.33
-48.79
-54.13
-63.55
-77.21
-92.43
-104.30
-107.07
-97.64
-76.94
-50.09
-24.30
-5.71
2.98
3.25
-0.84
-5.18
-7.51
-7.84
-7.52
-7.79
-8.89
-10.12
-10.59
-9.99
-8.70
-7.62
-7.68
-9.22
-11.84
-14.73
-17.00
-18.07
-18.01
-17.35
-16.83
-16.99
-17.87
-19.02
-19.66
-19.14
-17.04
-13.51
-9.05
-4.33
0.16
4.17
7.77
11.20
14.62
18.11
21.47
24.43
26.71
28.17
28.85
28.91
28.61
28.16
27.67
27.18
26.63
25.93
25.03
23.95
22.76
21.57
20.48
19.57
18.89
18.45
18.23
18.25
18.55
19.20
20.21
21.56
23.17
25.00
26.98
28.99
30.99
33.07
35.33
37.94
41.08
45.00
49.83
55.46
61.34
66.82
71.14
73.34
72.62
68.76
62.24
54.34
46.37
39.00
31.90
23.76
12.97
-1.59
-20.20
-42.69
-67.46
-92.68
-117.03
-139.37
-158.20
-171.48
-177.09
-174.01
-162.93
-145.90
-125.62
-104.20
-82.89
-62.59
-44.92
-32.56
-28.92
-36.64
-55.95
-84.23
-116.40
-146.13
-167.63
-176.98
-172.82
-156.51
-131.57
-102.75
-74.87
-51.56
-34.32
-22.13
-11.89
0.86
20.56
50.08
89.38
134.58
178.54
212.44
228.51
222.65
196.10
155.06
108.74
66.51
35.14
17.48
12.38
15.36
19.61
17.29
1.48
-31.41
-79.42
-134.54
-184.60
-217.22
-224.22
-204.31
-162.79
-108.66
-50.87
4.31
53.67
95.86
129.82
154.31
168.54
173.12
170.39
163.60
155.42
146.95
137.77
126.99
114.79
103.11
95.08
93.44
98.76
108.66
118.42
122.96
118.90
105.91
86.74
65.90
47.93
35.99
31.31
33.14
39.46
47.47
54.16
56.87
53.79
44.51
30.25
13.62
-1.92
-13.05
-17.29
-13.63
-2.73
13.02
29.47
41.00
41.36
25.66
-7.08
-51.93
-98.33
-133.14
-145.76
-132.64
-98.74
-55.22
-14.08
16.88
36.31
47.82
56.17
63.35
67.30
63.50
48.00
20.33
-15.54
-52.19
-81.09
-95.08
-90.46
-68.17
-33.80
3.62
33.95
48.63
43.20
18.58
-19.02
-59.88
-93.44
-111.11
-108.62
-87.17
-53.27
-17.09
10.42
20.75
10.48
-17.59
-55.34
-92.00
-117.34
-124.49
-111.57
-81.85
-42.71
-3.94
24.32
33.90
20.80
-13.43
-61.57
-112.60
-154.75
-178.81
-180.55
-161.32
-127.12
-86.44
-47.67
-16.86
3.56
14.64
20.14
24.85
32.48
44.31
59.22
74.72
88.54
99.59
107.93
114.59
120.93
127.97
135.85
143.80
150.45
154.40
154.66
150.39
142.03
131.38
120.81
112.14
106.25
103.13
101.97
101.20
96.57
84.85
66.02
43.61
23.07
10.19
9.66
23.65
50.98
83.46
113.02
135.52
150.00
155.51
150.39
133.75
106.61
72.15
28.38
-23.94
-78.88
-128.76
-169.80
-202.88
-230.80
-256.31
-281.31
-315.22
-363.04
-420.57
-478.27
-529.00
-570.53
-603.23
-628.42
-594.00
-480.31
-317.83
-158.85
-33.29
56.00
117.35
160.46
192.59
218.31
231.68
229.29
215.71
200.23
189.42
184.50
184.45
187.65
192.63
191.87
180.78
162.32
143.32
128.47
118.08
111.03
105.71
100.74
91.16
74.27
51.95
28.49
10.77
-1.67
-10.39
-16.84
-21.85
-27.57
-34.77
-42.01
-46.98
-48.55
-47.90
-46.38
-45.32
-45.42
-47.27
-50.42
-53.54
-55.26
-55.00
-53.73
-52.34
-51.63
-52.22
-54.64
-59.27
-65.78
-72.43
-75.82
-71.96
-57.55
-32.21
0.62
34.58
62.87
80.99
88.16
87.08
81.90
76.37
72.43
70.28
69.23
68.57
68.00
67.58
67.19
66.58
65.50
63.84
61.85
60.53
61.24
64.99
71.13
76.78
77.35
68.15
47.06
16.02
-19.05
-50.52
-72.15
-81.53
-80.54
-72.77
-62.04
-50.39
-38.14
-24.89
-10.89
2.39
12.66
18.24
18.90
15.62
10.16
4.00
-2.38
-9.39
-17.17
-26.64
-37.43
-47.75
-56.04
-59.52
-57.09
-49.41
-38.72
-27.98
-19.91
-15.98
-15.77
-17.64
-19.71
-20.78
-20.83
-20.64
-21.32
-23.96
-29.35
-37.60
-48.35
-60.27
-70.72
-75.90
-72.01
-57.26
-31.86
-2.58
22.99
38.80
42.81
37.06
26.13
14.53
4.77
-3.09
-10.26
-17.25
-23.56
-27.94
-29.57
-28.64
-26.56
-25.13
-26.01
-29.90
-35.97
-42.87
-49.18
-53.94
-56.89
-58.37
-58.85
-58.51
-57.30
-53.96
-47.36
-36.73
-21.94
-3.69
16.70
37.62
57.47
74.14
87.23
96.63
102.59
105.56
106.27
105.40
103.52
100.93
97.54
93.38
88.20
82.07
75.52
69.48
64.91
62.48
62.42
63.41
64.02
62.83
59.27
53.95
48.45
44.60
43.61
45.30
47.96
49.56
47.53
40.74
29.92
17.27
5.65
-2.71
-6.55
-6.01
-2.58
0.69
-0.36
-10.19
-31.98
-65.46
-105.93
-144.65
-171.29
-177.94
-162.65
-130.06
-89.33
-50.16
-18.85
2.59
15.64
23.14
26.97
27.43
24.47
19.15
14.20
13.51
19.48
31.69
47.32
62.14
72.54
77.17
77.59
75.59
75.83
82.46
94.42
108.91
121.66
127.66
122.44
103.73
72.46
33.67
-5.63
-38.36
-59.90
-70.64
-75.78
-82.63
-96.49
-118.22
-143.76
-167.61
-185.54
-196.77
-204.54
-214.32
-231.30
-258.17
-295.58
-338.02
-380.17
-415.76
-438.32
-442.74
-426.89
-392.53
-343.72
-286.78
-227.69
-170.94
-118.20
-69.53
-24.69
15.71
50.78
82.58
113.20
144.92
179.30
217.20
257.66
298.48
336.47
368.94
398.36
426.62
455.04
484.38
515.78
549.99
588.00
629.04
670.15
709.76
740.27
750.54
730.52
676.16
590.72
485.26
373.74
243.58
103.11
-30.60
-143.26
-231.22
-295.57
-347.57
-394.23
-440.43
-490.96
-541.07
-587.62
-627.05
-653.63
-660.05
-641.44
-596.96
-532.31
-457.36
-378.64
-302.32
-232.01
-168.27
-109.30
-53.76
-0.77
48.77
93.25
133.50
169.16
199.08
221.89
236.99
243.63
242.66
235.40
223.49
209.08
191.95
169.63
138.46
95.63
39.28
-29.37
-106.58
-186.45
-261.50
-324.58
-369.99
-394.74
-398.71
-385.76
-361.04
-329.34
-293.53
-254.02
-209.82
-160.50
-112.09
-67.95
-37.48
-28.97
-45.95
-84.38
-133.15
-177.70
-205.27
-209.53
-191.45
-158.72
-120.32
-82.81
-48.31
-14.99
20.68
60.89
104.52
147.22
182.12
203.96
211.73
209.64
205.22
205.58
213.67
227.33
241.37
250.59
253.39
252.03
250.75
253.24
261.58
276.73
299.71
331.95
373.44
421.17
468.22
505.31
523.57
517.75
487.38
435.89
368.58
290.97
208.78
128.51
57.73
3.92
-27.36
-34.25
-19.47
10.52
47.90
85.84
119.73
146.80
164.66
170.96
163.96
143.39
110.90
69.94
24.77
-20.65
-63.87
-104.47
-143.19
-180.53
-216.22
-249.48
-279.43
-305.36
-325.46
-335.13
-331.02
-314.17
-288.87
-259.84
-230.28
-201.77
-174.80
-149.49
-126.16
-105.77
-89.52
-77.45
-68.60
-61.40
-54.34
-46.33
-37.12
-27.51
-19.43
-15.62
-17.20
-23.86
-34.15
-46.08
-58.03
-69.01
-79.20
-87.43
-95.30
-103.83
-113.39
-124.06
-135.51
-146.49
-154.07
-153.94
-142.00
-116.76
-80.32
-38.63
0.41
30.08
47.46
53.98
53.76
51.11
48.15
45.15
41.37
36.51
31.32
27.31
25.65
26.29
28.05
29.06
27.89
24.28
19.07
13.78
9.86
8.05
8.11
9.01
9.32
8.08
5.07
0.85
-3.60
-7.27
-9.63
-10.80
-11.36
-12.18
-13.85
-16.51
-19.79
-23.01
-25.48
-26.76
-26.81
-25.90
-24.48
-22.91
-21.25
-19.24
-16.42
-12.37
-6.94
-0.39
6.56
12.99
18.06
21.37
23.14
24.15
25.42
27.77
31.39
35.77
39.83
42.46
43.14
42.24
40.97
40.90
43.14
47.69
53.34
58.13
60.08
58.25
53.16
46.64
41.33
39.67
43.01
50.95
61.09
69.26
70.58
60.69
37.24
0.94
-44.24
-91.60
-133.06
-161.19
-171.33
-163.01
-139.94
-108.56
-75.30
-44.90
-19.49
0.65
15.59
24.60
26.16
19.27
5.27
-10.74
-21.54
-20.45
-4.51
23.91
58.08
89.80
112.85
122.87
120.23
108.72
93.41
78.47
65.95
55.91
47.51
40.17
34.24
31.24
32.82
39.82
51.60
66.05
80.40
92.28
100.64
106.23
111.17
117.46
125.69
134.45
141.02
142.62
137.61
126.03
109.26
89.25
67.35
43.81
17.94
-11.26
-44.23
-80.24
-117.20
-151.71
-179.72
-197.75
-203.98
-198.83
-184.55
-164.22
-140.36
-114.74
-87.82
-59.52
-30.30
-1.58
24.58
46.49
63.63
76.81
86.51
93.13
96.39
95.48
89.68
79.22
65.47
50.28
35.08
18.45
-1.79
-27.75
-60.68
-100.85
-148.14
-202.46
-263.49
-329.39
-397.36
-460.37
-508.59
-532.79
-528.18
-496.51
-445.46
-385.59
-314.37
-233.81
-147.80
-61.99
17.41
85.53
139.91
180.87
210.91
233.77
250.69
261.42
264.55
257.75
240.17
214.64
187.80
167.40
158.25
157.96
159.35
153.92
136.07
105.69
67.75
30.73
2.47
-13.44
-19.42
-20.21
-19.35
-17.63
-13.83
-6.75
3.39
14.54
23.92
28.96
29.04
25.61
21.10
17.84
17.08
18.73
21.50
23.69
23.87
21.76
18.25
14.81
12.71
12.54
14.09
16.46
18.54
19.56
19.41
18.60
17.86
17.79
18.64
20.29
22.30
24.18
25.59
26.46
26.95
27.31
27.64
27.93
28.02
27.74
26.87
25.33
23.02
20.13
16.86
13.39
9.90
6.58
3.52
0.78
-1.60
-3.61
-5.22
-6.37
-6.99
-6.93
-5.98
-4.12
-1.30
2.48
7.13
12.56
18.60
25.10
31.91
38.95
45.84
52.32
58.20
63.43
68.11
72.49
76.96
82.01
88.13
95.23
103.16
111.69
120.56
129.63
138.92
148.56
158.74
169.54
180.11
189.32
195.83
198.31
195.62
186.99
171.80
148.91
121.17
89.70
55.23
18.31
-20.37
-59.67
-97.92
-133.18
-163.64
-188.06
-206.86
-221.22
-232.88
-244.10
-256.88
-272.38
-290.45
-309.34
-325.40
-333.95
-329.82
-309.23
-271.83
-220.88
-162.07
-101.59
-44.13
8.09
54.78
97.01
135.88
170.84
200.89
225.43
244.72
259.52
270.64
278.67
284.12
287.06
284.29
273.25
253.41
226.95
197.24
167.31
138.75
111.61
84.92
52.73
12.64
-31.45
-71.09
-99.17
-114.37
-120.92
-125.60
-134.23
-157.89
-201.49
-261.41
-328.11
-393.05
-452.62
-506.97
-557.32
-604.48
-659.53
-729.62
-812.81
-898.75
-975.77
-1036.50
-1077.82
-1099.16
-1031.89
-844.71
-561.36
-248.69
31.37
250.29
407.39
514.55
586.00
633.23
653.94
646.64
616.61
575.80
535.92
503.31
479.12
462.19
448.95
428.26
392.73
342.75
285.63
229.77
180.04
137.55
105.88
83.37
62.27
37.11
7.68
-21.57
-45.27
-60.79
-69.07
-73.53
-78.83
-89.47
-105.09
-119.68
-124.84
-114.61
-89.46
-55.60
-21.17
7.34
27.03
37.77
41.33
37.74
26.46
8.39
-11.87
-26.19
-26.82
-10.30
19.39
52.07
75.71
82.92
73.43
53.05
29.41
7.32
-12.89
-34.03
-58.65
-86.33
-112.28
-130.07
-134.90
-126.08
-107.26
-83.70
-59.19
-33.54
-6.93
21.78
51.65
77.61
90.86
82.68
48.97
-6.44
-71.91
-131.88
-172.44
-187.23
-179.32
-158.41
-135.32
-117.14
-105.39
-97.32
-89.25
-78.80
-66.50
-54.87
-46.34
-40.60
-34.76
-24.82
-7.96
15.71
43.10
69.54
91.14
106.65
119.43
132.59
145.24
151.77
145.13
122.19
86.69
48.20
17.59
6.33
18.12
47.38
82.47
112.38
131.52
139.70
139.33
132.66
128.32
133.68
152.20
182.41
220.49
262.97
307.11
350.51
390.81
436.08
494.45
569.24
657.04
751.50
848.14
945.33
1042.35
1077.56
1007.92
828.15
576.94
308.55
63.97
-135.73
-284.43
-385.76
-449.95
-480.86
-482.64
-461.80
-427.95
-390.69
-356.73
-329.81
-311.98
-304.07
-298.63
-287.48
-266.44
-237.58
-206.54
-178.97
-158.67
-147.46
-145.92
-149.28
-151.52
-148.97
-141.99
-133.26
-125.79
-121.66
-121.83
-126.55
-133.81
-140.05
-142.74
-141.57
-137.58
-133.06
-130.31
-131.32
-130.96
-130.10
-128.89
-126.69
-122.89
-116.78
-108.98
-100.64
-93.00
-87.71
-85.87
-86.04
-85.74
-86.05
-83.46
-77.06
-67.83
-57.63
-49.60
-46.61
-50.00
-60.13
-76.14
-94.84
-111.90
-122.25
-115.36
-91.86
-58.63
-25.13
0.10
12.68
13.77
7.81
-0.14
-6.64
-12.05
-17.32
-22.83
-27.79
-30.55
-30.07
-25.77
-18.86
-11.34
-6.14
-4.12
-4.67
-6.21
-7.14
-6.36
-3.96
-1.11
0.61
-0.70
-5.21
-12.14
-20.09
-27.62
-33.61
-37.55
-39.50
-39.51
-40.96
-45.08
-52.26
-62.46
-75.40
-90.85
-108.73
-129.15
-152.17
-177.79
-205.15
-233.14
-260.57
-286.25
-309.08
-328.11
-342.62
-352.03
-355.90
-353.48
-344.30
-328.13
-305.02
-275.42
-240.15
-200.42
-157.72
-113.59
-69.29
-25.84
16.01
55.73
92.93
127.23
158.20
185.49
208.85
228.45
244.73
258.32
269.83
279.71
288.03
294.65
299.49
302.70
304.87
306.87
309.50
313.32
318.51
325.22
333.80
344.84
358.60
374.32
389.67
400.94
404.11
396.22
376.47
346.49
309.70
270.16
231.54
196.87
168.42
147.68
134.77
127.55
120.91
107.35
79.26
32.09
-32.51
-105.87
-174.24
-223.28
-242.80
-229.81
-188.61
-128.32
-59.70
7.28
64.68
106.63
129.69
133.45
121.30
99.97
77.77
61.83
55.50
57.75
64.30
70.24
71.90
68.09
59.57
48.07
35.45
23.33
13.04
5.53
1.26
-0.08
0.29
0.69
-0.40
-3.60
-8.46
-13.75
-18.22
-21.12
-22.47
-22.87
-23.04
-23.49
-24.36
-25.57
-26.99
-28.58
-30.40
-32.54
-35.03
-37.81
-40.66
-43.31
-45.56
-47.21
-48.20
-48.42
-47.83
-46.40
-44.23
-41.71
-39.24
-37.13
-35.45
-33.96
-32.39
-30.86
-30.06
-31.01
-34.62
-40.92
-48.82
-56.32
-61.26
-62.28
-59.26
-53.32
-46.16
-39.59
-34.62
-31.09
-27.94
-23.42
-15.73
-3.58
12.96
32.53
51.50
65.67
71.26
66.43
52.66
34.66
19.17
12.92
20.56
41.68
72.40
106.29
136.62
158.77
171.48
176.95
179.68
185.47
196.89
214.24
233.76
248.25
249.11
229.10
184.87
118.36
37.07
-51.47
-139.06
-220.33
-293.49
-359.24
-418.49
-469.77
-514.67
-536.56
-529.45
-489.79
-420.49
-330.77
-233.50
-141.08
-62.02
0.18
47.36
81.17
104.73
120.79
131.88
140.49
148.01
153.55
153.75
145.78
127.36
101.28
74.14
54.29
49.31
62.59
92.54
133.11
178.01
220.38
254.95
277.22
283.36
272.15
244.63
204.55
157.28
110.97
73.02
48.16
36.42
33.62
34.97
35.80
33.16
25.01
12.57
-2.09
-17.31
-33.27
-59.55
-100.17
-152.25
-197.93
-227.76
-236.38
-224.01
-193.56
-152.11
-108.91
-70.70
-40.74
-18.28
-1.56
12.39
24.96
35.21
40.48
38.67
30.10
15.83
-3.49
-28.29
-56.64
-83.49
-101.60
-104.58
-89.99
-60.49
-23.60
11.40
37.37
52.40
59.06
61.15
60.56
56.13
45.14
25.21
-4.43
-42.33
-86.16
-133.42
-181.57
-227.22
-265.64
-291.12
-298.87
-287.75
-260.57
-224.25
-186.75
-154.07
-127.98
-105.73
-81.88
-49.42
-9.73
34.52
76.32
107.64
122.71
120.01
102.61
76.37
47.51
20.26
-2.50
-19.77
-31.16
-36.61
-36.57
-32.21
-25.01
-15.72
-3.84
13.00
36.81
67.56
102.79
138.08
168.93
192.42
207.94
216.21
218.57
215.45
206.96
193.73
177.64
161.54
147.87
136.93
126.03
110.46
85.95
51.45
10.39
-30.26
-62.87
-82.56
-89.15
-87.28
-83.33
-82.20
-84.82
-88.48
-88.90
-82.91
-70.02
-52.90
-35.85
-22.36
-13.50
-7.42
-2.02
3.67
8.80
11.59
10.52
4.59
-5.67
-18.51
-30.68
-40.74
-48.46
-54.55
-58.75
-60.18
-59.36
-57.59
-56.68
-56.14
-56.33
-57.34
-59.14
-60.77
-61.55
-63.40
-69.00
-80.41
-95.51
-113.24
-132.95
-154.54
-176.67
-185.48
-170.12
-127.21
-79.04
-36.58
-6.32
13.23
21.77
21.33
16.25
10.26
7.14
10.30
24.95
51.83
87.43
124.16
153.82
169.93
168.60
151.20
123.93
97.52
79.74
73.82
78.13
89.09
103.11
116.91
128.51
136.73
141.50
141.21
133.25
115.43
88.01
54.34
19.89
-9.04
-27.48
-33.07
-27.76
-16.39
-4.29
5.48
12.89
19.75
27.85
37.29
46.27
51.71
50.70
41.91
26.18
6.13
-14.89
-33.60
-47.10
-53.03
-49.39
-35.05
-10.33
22.26
57.94
90.44
113.49
122.62
116.42
96.94
68.95
38.41
10.82
-10.09
-22.98
-28.76
-30.18
-31.01
-35.23
-46.08
-65.76
-94.98
-132.76
-175.92
-219.19
-256.54
-283.19
-297.89
-303.86
-307.69
-315.98
-331.77
-352.63
-371.36
-379.57
-371.64
-347.35
-311.53
-271.67
-234.58
-204.15
-180.87
-162.74
-146.89
-131.10
-114.51
-97.57
-81.11
-65.05
-47.75
-26.33
1.84
36.96
75.74
111.98
139.22
154.02
157.77
155.83
154.54
158.08
166.73
177.86
188.40
196.64
202.63
207.01
209.55
209.05
204.74
198.03
193.09
195.83
211.59
242.86
288.25
342.37
396.86
442.19
469.56
473.00
451.16
407.80
350.77
289.38
231.56
181.68
140.46
106.06
76.02
48.38
21.75
-5.27
-34.72
-69.11
-110.14
-157.20
-206.76
-252.96
-289.76
-313.49
-324.24
-325.44
-321.86
-317.29
-313.28
-309.40
-304.47
-297.51
-288.08
-275.74
-259.51
-238.28
-211.81
-181.74
-152.12
-128.23
-114.85
-114.45
-126.17
-146.05
-168.31
-187.21
-198.64
-201.06
-195.24
-183.30
-167.42
-149.18
-129.43
-108.65
-87.39
-66.27
-45.89
-26.66
-8.89
7.11
21.34
34.41
48.05
64.70
86.55
114.20
145.96
178.05
205.98
226.35
237.72
240.60
236.56
227.15
213.33
195.87
175.96
156.01
139.42
129.75
129.23
137.59
151.75
166.77
177.60
180.82
175.48
162.89
145.31
124.77
102.44
78.83
54.46
30.39
8.14
-10.82
-25.76
-36.97
-45.33
-51.75
-56.65
-59.86
-60.85
-59.28
-55.24
-49.36
-42.58
-35.84
-29.78
-24.62
-20.29
-16.59
-13.42
-10.83
-8.77
-7.18
-5.73
-3.93
-1.31
2.49
7.46
13.23
19.25
25.07
30.39
35.12
39.23
42.61
45.23
47.19
48.80
50.42
52.13
53.53
53.79
52.08
47.99
41.70
33.72
24.37
13.39
0.07
-16.15
-34.86
-54.36
-72.29
-86.49
-95.92
-100.83
-102.21
-101.16
-98.20
-93.27
-86.04
-76.48
-65.11
-52.99
-41.52
-31.97
-25.15
-21.20
-19.58
-19.10
-18.42
-16.44
-12.65
-7.33
-1.14
5.15
11.04
16.31
20.89
24.65
27.43
28.98
29.10
27.82
25.34
21.96
17.93
13.45
8.62
3.60
-1.17
-5.04
-7.31
-7.45
-5.53
-2.27
1.08
3.18
3.15
0.87
-2.93
-7.03
-10.21
-11.75
-11.57
-10.17
-8.36
-6.79
-5.79
-5.30
-4.91
-4.16
-2.64
-0.13
3.34
7.44
11.66
15.49
18.72
21.58
24.78
29.02
34.60
40.93
46.44
48.93
46.46
38.15
24.68
8.29
-7.96
-21.11
-28.99
-30.56
-25.94
-16.07
-2.44
13.36
29.85
45.88
60.61
73.17
82.31
86.08
82.07
68.34
44.73
13.54
-20.83
-53.61
-81.18
-101.93
-115.62
-122.22
-121.36
-113.14
-99.55
-85.05
-75.38
-74.49
-81.76
-91.44
-95.29
-87.02
-65.87
-36.93
-8.30
13.05
24.03
25.36
19.32
7.40
-10.06
-32.53
-57.10
-77.82
-87.22
-79.54
-53.77
-14.51
29.78
69.99
99.63
116.33
121.38
117.93
109.20
97.44
83.82
69.09
54.10
39.98
27.91
18.89
13.35
11.04
11.08
12.17
12.91
12.41
10.66
8.55
7.44
8.33
11.13
14.63
16.94
16.52
12.96
7.47
2.44
0.64
4.12
13.39
27.10
42.48
56.25
65.61
69.14
66.96
60.49
51.74
42.56
34.33
27.80
23.29
20.76
19.90
20.14
20.77
21.12
20.69
19.35
17.16
14.16
10.27
5.27
-1.12
-9.07
-18.38
-28.42
-38.11
-46.07
-51.03
-52.25
-49.84
-44.91
-39.26
-34.67
-32.48
-33.08
-35.93
-39.87
-43.51
-45.72
-45.87
-43.88
-40.09
-35.15
-29.84
-25.00
-21.31
-19.26
-19.11
-20.69
-23.35
-26.20
-28.25
-28.79
-27.71
-25.43
-22.80
-20.67
-19.56
-19.54
-20.24
-21.17
-21.93
-22.39
-22.74
-23.31
-24.42
-26.24
-28.66
-31.42
-34.23
-36.97
-39.80
-43.20
-47.78
-54.02
-61.98
-71.13
-80.51
-88.96
-95.61
-100.20
-103.18
-105.60
-108.68
-113.31
-119.86
-128.13
-137.52
-147.27
-156.40
-163.73
-168.00
-167.94
-162.67
-151.99
-136.30
-116.30
-92.61
-65.58
-35.57
-3.67
28.08
56.81
79.67
94.82
102.17
103.40
101.39
99.42
100.31
105.83
116.37
130.92
147.41
163.43
176.90
186.71
192.81
195.92
196.98
196.62
195.10
192.56
189.17
185.21
180.89
176.12
170.54
163.78
155.68
146.48
136.75
127.16
118.27
110.40
103.54
97.49
91.88
86.28
80.32
73.77
66.63
59.06
51.28
43.43
35.39
26.86
17.49
7.18
-3.76
-14.62
-24.50
-32.71
-38.99
-43.51
-46.66
-48.72
-49.74
-49.58
-48.22
-45.89
-43.17
-40.78
-39.29
-38.89
-39.40
-40.30
-41.05
-41.26
-40.78
-39.75
-38.50
-37.43
-36.95
-37.24
-38.40
-40.32
-42.92
-46.05
-49.50
-52.96
-55.92
-57.85
-58.31
-57.19
-54.74
-51.36
-47.45
-43.16
-38.39
-32.93
-26.61
-19.60
-12.40
-5.93
-1.13
1.19
0.84
-1.66
-5.17
-8.29
-9.92
-9.76
-8.56
-7.79
-8.94
-12.68
-18.41
-24.26
-27.84
-27.20
-21.64
-12.00
-0.23
11.18
19.96
24.44
23.76
18.04
8.83
-0.91
-7.06
-5.54
6.24
28.20
57.35
88.74
117.27
139.33
153.64
161.11
163.78
163.73
162.37
160.24
157.33
153.35
148.10
141.57
133.97
125.69
116.95
107.57
96.66
82.81
64.67
41.49
13.53
-18.01
-51.28
-84.20
-114.41
-139.28
-156.02
-162.35
-157.49
-142.99
-122.65
-101.47
-83.99
-72.63
-67.33
-66.11
-66.51
-66.72
-65.95
-64.21
-61.59
-58.01
-53.31
-47.66
-41.86
-37.19
-34.87
-35.51
-38.75
-43.44
-48.22
-52.09
-54.72
-56.44
-57.81
-59.19
-60.44
-60.96
-59.78
-56.02
-49.05
-38.78
-25.89
-11.63
2.25
14.04
22.38
26.86
27.86
26.38
23.42
19.60
15.09
9.90
4.20
-1.35
-5.87
-8.55
-9.20
-8.34
-7.03
-6.26
-6.61
-8.05
-10.16
-12.44
-14.58
-16.45
-18.00
-19.14
-19.68
-19.45
-18.42
-16.73
-14.81
-13.23
-12.54
-13.05
-14.71
-17.01
-19.07
-19.86
-18.46
-14.38
-7.66
0.95
10.19
18.59
24.77
27.93
27.96
25.41
21.10
15.84
10.20
4.46
-1.14
-6.13
-9.97
-12.16
-12.52
-11.39
-9.47
-7.51
-6.02
-5.14
-4.71
-4.44
-4.14
-3.73
-3.27
-2.91
-2.84
-3.21
-4.04
-5.22
-6.40
-7.01
-6.39
-4.09
-0.08
5.08
10.40
14.91
18.03
19.94
21.43
23.38
26.27
29.80
33.02
34.79
34.40
31.89
27.97
23.70
20.00
17.37
15.95
15.66
16.42
18.11
20.58
23.66
27.14
31.00
35.29
40.11
45.27
50.28
54.34
56.51
55.90
51.86
44.23
33.80
22.70
14.57
13.96
25.01
49.81
87.30
133.54
182.88
229.77
270.01
300.84
320.52
327.61
320.94
300.17
266.41
222.34
171.74
118.71
66.95
19.71
-20.47
-51.87
-74.29
-89.58
-101.49
-114.41
-131.64
-153.94
-179.32
-204.46
-226.38
-243.85
-257.29
-267.96
-276.60
-282.98
-286.41
-286.70
-284.98
-283.44
-284.30
-288.57
-295.27
-301.57
-304.00
-299.85
-288.18
-270.12
-247.96
-224.10
-199.96
-175.63
-150.55
-124.39
-97.91
-72.91
-51.68
-35.86
-25.54
-19.02
-13.00
-3.62
12.27
35.74
65.21
96.52
124.44
144.51
154.74
156.29
152.46
146.99
142.17
138.17
133.54
126.69
116.99
105.26
93.26
82.60
74.32
68.56
65.22
64.23
65.58
68.56
71.11
69.89
61.30
43.18
16.35
-14.96
-44.16
-64.62
-71.92
-65.33
-47.70
-24.47
-1.81
15.07
23.19
22.60
16.21
8.86
5.58
9.75
21.86
39.69
59.30
76.75
89.18
95.11
94.40
87.67
76.39
62.69
49.35
39.16
33.99
34.08
38.03
43.57
48.66
52.23
54.27
55.39
56.09
56.23
55.20
52.19
46.80
39.21
30.23
20.85
11.99
4.19
-2.30
-7.19
-10.10
-10.48
-8.06
-3.17
3.20
9.62
14.76
17.95
19.38
19.96
20.76
22.59
25.67
29.75
34.38
39.18
43.94
48.57
52.78
56.06
57.72
57.03
53.59
47.44
39.15
29.64
19.90
10.71
2.50
-4.60
-10.69
-15.93
-20.59
-24.96
-29.39
-34.13
-39.25
-44.44
-49.07
-52.41
-53.86
-53.20
-50.67
-46.80
-42.20
-37.46
-33.10
-29.61
-27.40
-26.72
-27.47
-29.22
-31.26
-32.80
-33.23
-32.38
-30.39
-27.78
-25.20
-23.24
-22.32
-22.54
-23.64
-25.08
-26.22
-26.45
-25.45
-23.16
-19.83
-15.82
-11.62
-7.69
-4.42
-2.10
-0.90
-0.81
-1.61
-2.83
-3.90
-4.23
-3.40
-1.34
1.66
5.03
8.04
10.21
11.40
11.73
11.58
11.31
10.96
10.37
9.34
7.71
5.59
3.32
1.30
-0.16
-0.99
-1.36
-1.57
-1.91
-2.59
-3.67
-5.08
-6.65
-8.24
-9.76
-11.15
-12.42
-13.56
-14.60
-15.50
-16.32
-17.16
-18.16
-19.52
-21.33
-23.39
-25.31
-26.61
-26.73
-25.40
-22.65
-18.74
-14.13
-9.29
-4.62
-0.48
2.82
5.06
6.09
6.00
5.09
3.85
2.77
2.18
2.20
2.69
3.41
4.10
4.66
5.08
5.35
5.46
5.32
4.81
3.80
2.30
0.43
-1.53
-3.27
-4.56
-5.33
-5.68
-5.81
-5.96
-6.25
-6.70
-7.29
-7.94
-8.57
-9.13
-9.60
-9.94
-10.27
-10.74
-11.60
-13.08
-15.15
-17.53
-19.68
-20.98
-20.94
-19.42
-16.66
-13.21
-9.79
-6.96
-5.06
-4.04
-3.78
-4.11
-5.03
-6.59
-8.79
-11.30
-13.37
-14.00
-12.30
-7.80
-0.70
8.12
17.43
25.92
32.60
36.88
38.66
38.28
36.39
33.70
30.85
28.21
25.86
23.69
21.61
19.68
18.07
17.02
16.60
16.62
16.68
16.42
15.66
14.52
13.28
12.21
11.37
10.52
9.26
7.19
4.11
0.11
-4.46
-9.02
-12.85
-15.33
-16.00
-14.69
-11.65
-7.50
-3.10
0.58
2.88
3.48
2.50
0.31
-2.64
-5.94
-9.35
-12.67
-15.73
-18.35
-20.30
-21.42
-21.52
-20.37
-17.69
-13.20
-6.84
1.13
10.04
18.89
26.60
32.28
35.37
35.75
33.69
29.83
24.90
19.71
14.93
11.06
8.33
6.72
5.98
5.72
5.55
5.09
4.04
2.19
-0.57
-4.19
-8.36
-12.61
-16.20
-18.42
-18.91
-17.65
-15.08
-11.88
-8.77
-6.22
-4.44
-3.36
-2.89
-2.98
-3.66
-4.93
-6.72
-8.81
-10.78
-12.27
-13.00
-12.92
-12.27
-11.34
-10.43
-9.69
-9.13
-8.58
-7.91
-6.99
-5.81
-4.51
-3.24
-2.20
-1.56
-1.37
-1.56
-2.06
-2.67
-3.29
-3.85
-4.41
-5.10
-6.05
-7.37
-8.99
-10.74
-12.23
-13.05
-12.84
-11.37
-8.70
-5.05
-0.86
3.44
7.33
10.46
12.57
13.54
13.44
12.41
10.73
8.64
6.45
4.42
2.73
1.51
0.72
0.24
-0.10
-0.41
-0.74
-0.95
-0.90
-0.48
0.26
1.12
1.80
1.98
1.49
0.41
-1.04
-2.44
-3.45
-3.77
-3.42
-2.68
-2.03
-1.95
-2.73
-4.37
-6.52
-8.61
-9.98
-10.23
-9.12
-6.75
-3.56
-0.09
3.10
5.62
7.28
8.13
8.31
7.97
7.25
6.34
5.36
4.52
3.94
3.68
3.65
3.79
4.00
4.31
4.73
5.22
5.52
5.25
4.10
1.86
-1.29
-4.93
-8.50
-11.55
-13.77
-15.13
-15.83
-16.10
-16.21
-16.39
-16.74
-17.21
-17.58
-17.48
-16.50
-14.33
-10.97
-6.71
-2.18
1.91
4.81
6.09
5.70
3.97
1.61
-0.56
-1.85
-1.92
-0.95
0.54
1.97
3.01
3.68
4.32
5.29
6.71
8.28
9.49
9.84
9.15
7.65
5.94
4.56
3.78
3.46
3.15
2.42
1.12
-0.55
-2.22
-3.57
-4.56
-5.50
-6.70
-8.09
-9.21
-9.34
-7.90
-4.74
-0.41
4.06
7.59
9.49
9.67
8.56
6.74
4.52
1.82
-1.78
-6.64
-12.70
-19.31
-25.45
-30.09
-32.71
-33.40
-32.80
-31.66
-30.52
-29.50
-28.39
-26.94
-24.99
-22.59
-19.97
-17.27
-14.52
-11.68
-8.76
-6.05
-3.98
-3.04
-3.43
-4.93
-6.82
-8.22
-8.41
-7.10
-4.47
-0.96
2.97
6.98
10.80
14.09
16.47
17.55
17.13
15.45
13.10
10.79
9.17
8.58
9.22
11.07
14.05
17.85
21.96
25.67
28.26
29.21
28.36
26.05
22.88
19.54
16.56
14.20
12.43
11.09
9.99
8.89
7.62
5.98
3.79
0.93
-2.56
-6.47
-10.51
-14.40
-17.98
-21.14
-23.66
-25.11
-24.82
-22.27
-17.29
-10.36
-2.50
5.04
11.37
16.18
19.71
22.42
24.57
26.06
26.60
25.98
24.36
22.28
20.36
19.03
18.42
18.35
18.55
18.78
18.92
18.87
18.52
17.81
16.72
15.41
14.08
12.89
11.90
11.02
10.21
9.49
8.97
8.76
8.89
9.12
9.07
8.24
6.26
2.95
-1.59
-7.02
-12.82
-18.42
-23.29
-26.88
-28.78
-28.65
-26.43
-22.29
-16.75
-10.53
-4.40
0.96
5.14
7.92
9.30
9.36
8.31
6.53
4.53
2.95
2.32
2.92
4.62
7.00
9.54
11.81
13.60
14.87
15.60
15.74
15.18
13.86
11.94
9.68
7.42
5.43
3.75
2.32
0.97
-0.36
-1.71
-3.11
-4.59
-6.18
-7.82
-9.38
-10.62
-11.42
-11.86
-12.24
-12.98
-14.37
-16.32
-18.36
-19.83
-20.13
-18.97
-16.51
-13.19
-9.58
-6.15
-3.18
-0.76
1.11
2.50
3.44
3.97
4.09
3.91
3.52
3.01
2.53
2.18
2.09
2.39
3.12
4.23
5.58
6.94
8.10
8.80
8.91
8.39
7.30
5.78
4.10
2.65
1.81
1.85
2.78
4.29
5.73
6.34
5.50
2.99
-0.87
-5.44
-9.96
-13.86
-16.98
-19.50
-21.68
-23.58
-24.93
-25.18
-23.82
-20.57
-15.64
-9.68
-3.45
2.33
7.26
11.16
14.02
15.79
16.45
15.94
14.44
12.25
9.81
7.52
5.55
3.92
2.54
1.34
0.37
-0.29
-0.55
-0.41
0.02
0.60
1.20
1.72
2.03
1.96
1.23
-0.42
-3.09
-6.59
-10.40
-13.99
-17.15
-20.16
-23.76
-28.72
-35.37
-43.42
-51.94
-59.91
-66.54
-71.46
-74.54
-75.51
-73.81
-68.64
-59.54
-46.68
-30.95
-13.69
3.98
21.53
38.94
56.34
73.42
89.16
102.08
110.82
114.77
114.28
110.52
104.87
98.41
91.71
84.92
78.08
71.37
65.14
59.70
55.12
51.11
47.17
42.81
37.75
32.11
26.16
20.45
15.52
11.89
9.87
9.42
9.98
10.56
10.11
7.98
4.30
-0.11
-4.13
-7.09
-9.10
-10.97
-13.76
-17.95
-23.28
-28.78
-33.28
-35.93
-36.49
-35.23
-32.64
-29.13
-25.00
-20.52
-16.01
-11.81
-8.23
-5.41
-3.39
-2.14
-1.55
-1.60
-2.20
-3.23
-4.46
-5.66
-6.60
-7.17
-7.37
-7.23
-6.81
-6.16
-5.31
-4.25
-3.03
-1.67
-0.27
0.97
1.82
2.02
1.48
0.29
-1.31
-2.99
-4.42
-5.49
-6.24
-6.76
-7.17
-7.52
-7.71
-7.77
-7.82
-8.08
-8.83
-10.27
-12.31
-14.55
-16.39
-17.18
-16.50
-14.23
-10.68
-6.46
-2.24
1.45
4.33
6.37
7.80
8.84
9.64
10.17
10.34
10.08
9.49
8.75
8.17
7.96
8.13
8.50
8.81
8.84
8.54
8.03
7.50
7.03
6.48
5.54
3.96
1.67
-1.07
-3.79
-6.03
-7.51
-8.36
-9.00
-9.95
-11.56
-13.83
-16.52
-19.23
-21.51
-22.99
-23.32
-22.23
-19.51
-15.14
-9.41
-2.92
3.58
9.31
13.82
17.02
19.09
20.32
20.88
20.79
20.06
18.74
17.09
15.55
14.55
14.32
14.75
15.46
15.95
15.86
15.12
13.96
12.78
11.92
11.43
11.07
10.42
9.13
7.17
4.79
2.45
0.53
-0.96
-2.29
-3.86
-5.90
-8.34
-10.79
-12.86
-14.42
-15.77
-17.43
-19.83
-22.85
-25.81
-27.69
-27.64
-25.44
-21.67
-17.32
-13.30
-9.88
-6.67
-2.99
1.56
6.71
11.53
14.87
15.99
14.94
12.38
9.21
6.10
3.38
1.05
-0.78
-1.84
-1.73
-0.20
2.59
6.10
9.52
12.19
13.72
14.13
13.57
12.26
10.36
7.91
4.96
1.52
-2.44
-6.99
-12.23
-18.14
-24.53
-31.03
-37.06
-42.05
-45.47
-46.93
-46.13
-42.80
-36.73
-27.83
-16.29
-2.68
12.11
27.05
41.23
54.18
65.91
76.80
87.20
97.13
106.03
112.99
116.96
117.20
113.57
106.60
97.40
87.16
76.84
67.01
57.76
48.95
40.41
32.12
24.12
16.57
9.54
2.95
-3.30
-9.30
-15.06
-20.44
-25.31
-29.62
-33.47
-36.98
-40.31
-43.51
-46.52
-49.15
-51.18
-52.39
-52.75
-52.48
-52.11
-52.15
-53.00
-54.62
-56.48
-57.67
-57.35
-55.04
-50.79
-45.06
-38.46
-31.50
-24.47
-17.54
-10.88
-4.69
0.80
5.51
9.45
12.84
15.86
18.58
20.86
22.45
23.17
23.01
22.25
21.23
20.33
19.68
19.27
18.92
18.42
17.73
16.90
16.06
15.19
14.10
12.45
10.00
6.73
3.03
-0.42
-2.88
-3.78
-3.07
-1.27
0.57
1.24
-0.32
-4.69
-11.70
-20.54
-29.85
-38.04
-43.61
-45.46
-43.06
-36.60
-27.02
-15.69
-4.17
6.30
15.03
21.88
27.24
31.76
36.19
41.20
47.27
54.50
62.56
70.65
77.72
82.79
85.27
85.21
83.16
79.89
75.96
71.50
66.28
59.92
52.23
43.30
33.56
23.57
13.79
4.56
-3.93
-11.50
-17.93
-23.08
-27.00
-30.04
-32.81
-35.89
-39.70
-44.21
-48.96
-53.31
-56.68
-58.75
-59.60
-59.60
-59.19
-58.70
-58.14
-57.21
-55.57
-53.04
-49.72
-46.10
-42.74
-40.05
-38.12
-36.74
-35.56
-34.31
-32.96
-31.60
-30.33
-29.10
-27.65
-25.66
-22.92
-19.46
-15.56
-11.68
-8.23
-5.44
-3.43
-2.22
-1.86
-2.44
-3.92
-6.01
-8.14
-9.54
-9.65
-8.35
-6.04
-3.51
-1.63
-0.94
-1.61
-3.44
-6.16
-9.52
-13.44
-17.80
-22.38
-26.80
-30.58
-33.28
-34.58
-34.28
-32.35
-28.93
-24.27
-18.83
-13.16
-7.78
-3.11
0.55
3.05
4.25
4.07
2.63
0.29
-2.33
-4.46
-5.53
-5.49
-4.84
-4.44
-5.11
-7.17
-10.30
-13.65
-16.21
-17.25
-16.65
-14.77
-12.28
-9.83
-7.91
-6.70
-6.20
-6.35
-6.99
-7.92
-8.91
-9.75
-10.44
-11.09
-11.98
-13.34
-15.17
-17.22
-18.99
-19.91
-19.52
-17.66
-14.44
-10.22
-5.60
-1.29
2.03
3.82
3.92
2.61
0.51
-1.65
-3.40
-4.73
-6.06
-7.91
-10.60
-13.94
-17.24
-19.71
-20.90
-20.99
-20.80
-21.41
-23.62
-27.58
-32.67
-37.82
-42.05
-44.91
-46.72
-48.12
-49.71
-51.61
-53.39
-54.20
-52.89
-48.07
-37.90
-20.26
6.51
42.54
85.46
130.26
170.58
200.57
216.91
219.74
212.14
198.52
182.82
167.41
153.01
139.29
125.70
111.98
98.16
84.40
70.67
56.73
42.37
27.61
12.85
-1.10
-13.25
-22.83
-29.55
-33.78
-36.39
-38.39
-40.61
-43.41
-46.70
-50.13
-53.30
-55.99
-58.10
-59.62
-60.60
-61.07
-61.16
-61.07
-61.05
-61.18
-61.35
-61.22
-60.45
-58.95
-56.98
-55.04
-53.51
-52.41
-51.34
-49.63
-46.78
-42.65
-37.50
-31.80
-26.01
-20.34
-14.85
-9.49
-4.22
0.89
5.87
10.69
15.29
19.45
22.82
25.06
25.97
25.63
24.31
22.44
20.44
18.62
17.21
16.42
16.44
17.29
18.82
20.56
21.93
22.31
21.40
19.29
16.39
13.22
10.08
6.98
3.64
-0.25
-4.86
-10.16
-15.89
-21.73
-27.31
-32.24
-36.09
-38.48
-39.28
-38.78
-37.65
-36.68
-36.43
-36.95
-37.79
-38.21
-37.64
-35.81
-32.84
-29.07
-24.95
-21.02
-17.82
-15.70
-14.58
-13.77
-12.11
-8.38
-1.84
7.59
19.24
31.99
44.66
56.06
65.18
71.55
75.54
78.61
82.88
90.16
100.80
113.11
123.91
129.90
129.24
122.33
111.33
98.99
87.35
77.26
68.64
61.19
54.91
50.11
46.87
44.78
42.90
40.25
36.35
31.50
26.60
22.72
20.49
19.82
20.00
20.07
19.26
17.38
14.66
11.68
8.83
6.31
4.11
2.16
0.55
-0.54
-0.97
-0.76
-0.22
0.17
-0.08
-1.24
-3.28
-5.98
-9.06
-12.30
-15.67
-19.19
-22.82
-26.40
-29.60
-32.20
-34.11
-35.51
-36.77
-38.31
-40.48
-43.44
-47.17
-51.49
-56.12
-60.71
-64.77
-67.82
-69.44
-69.46
-67.99
-65.53
-62.72
-60.26
-58.57
-57.76
-57.67
-58.01
-58.55
-59.15
-59.75
-60.27
-60.54
-60.34
-59.34
-57.35
-54.06
-49.13
-42.16
-32.80
-21.01
-7.24
7.39
21.35
32.94
40.90
44.57
44.13
40.38
34.47
27.45
20.17
13.16
6.77
1.23
-3.36
-6.98
-9.80
-12.05
-13.97
-15.54
-16.53
-16.61
-15.51
-13.25
-10.27
-7.13
-4.45
-2.57
-1.49
-0.94
-0.54
0.07
1.11
2.59
4.40
6.35
8.21
9.78
10.95
11.69
12.05
12.13
12.04
11.88
11.70
11.51
11.27
10.91
10.30
9.36
7.92
5.90
3.36
0.44
-2.66
-5.76
-8.89
-12.17
-15.70
-19.37
-22.75
-25.17
-26.02
-25.03
-22.38
-18.71
-14.83
-11.37
-8.68
-6.75
-5.32
-4.16
-3.07
-1.96
-0.90
-0.03
0.54
0.73
0.55
0.07
-0.62
-1.45
-2.35
-3.29
-4.22
-5.09
-5.85
-6.57
-7.35
-8.36
-9.68
-11.30
-13.02
-14.55
-15.72
-16.49
-17.02
-17.59
-18.51
-19.94
-21.80
-23.81
-25.40
-25.96
-25.02
-22.39
-18.24
-13.07
-7.55
-2.23
2.56
6.75
10.47
13.81
16.80
19.34
21.38
22.92
24.17
25.38
26.78
28.39
30.08
31.47
32.14
31.80
30.39
28.04
25.02
21.63
18.09
14.51
10.96
7.52
4.25
1.26
-1.37
-3.61
-5.48
-7.08
-8.57
-10.15
-11.96
-14.05
-16.20
-18.01
-18.92
-18.47
-16.41
-12.85
-8.16
-2.91
2.31
7.08
11.20
14.70
17.80
20.88
24.27
28.23
32.81
37.77
42.65
46.82
49.66
50.68
49.86
47.57
44.61
41.87
40.01
39.17
38.84
38.11
36.10
32.34
26.91
20.49
13.96
8.09
3.39
0.10
-1.74
-2.15
-1.17
0.99
3.99
7.29
10.38
12.97
15.16
17.36
20.12
23.80
28.39
33.56
38.80
43.57
47.62
50.90
53.49
55.42
56.50
56.32
54.45
50.59
44.87
37.87
30.47
23.52
17.59
12.73
8.51
4.30
-0.43
-5.98
-12.42
-19.73
-27.92
-36.97
-46.76
-56.93
-66.83
-75.84
-83.57
-89.95
-95.20
-99.55
-102.85
-104.53
-103.72
-99.78
-92.71
-83.21
-72.50
-61.73
-51.51
-41.80
-32.13
-22.15
-12.11
-2.94
4.06
7.83
8.01
5.14
0.36
-5.07
-10.22
-14.67
-18.33
-21.25
-23.33
-24.37
-24.25
-23.12
-21.42
-19.76
-18.66
-18.19
-18.00
-17.57
-16.49
-14.74
-12.79
-11.35
-10.97
-11.76
-13.33
-14.92
-15.78
-15.53
-14.21
-12.26
-10.34
-8.91
-8.20
-8.09
-8.22
-8.18
-7.70
-6.72
-5.37
-3.85
-2.29
-0.72
1.00
2.89
4.90
6.83
8.40
9.45
9.92
9.90
9.59
9.15
8.63
7.98
7.13
6.04
4.77
3.38
2.01
0.77
-0.30
-1.23
-2.00
-2.64
-3.11
-3.39
-3.53
-3.64
-3.83
-4.16
-4.52
-4.68
-4.37
-3.47
-2.06
-0.39
1.09
1.88
1.48
-0.40
-3.69
-7.80
-11.70
-14.19
-14.41
-12.18
-8.13
-3.46
0.64
3.36
4.48
4.27
3.18
1.61
-0.13
-1.82
-3.20
-3.91
-3.62
-2.15
0.29
3.09
5.36
6.26
5.31
2.65
-1.03
-4.78
-7.74
-9.42
-9.78
-9.12
-7.79
-6.14
-4.44
-3.01
-2.19
-2.31
-3.49
-5.72
-8.74
-12.12
-15.40
-18.01
-19.41
-19.14
-16.99
-13.13
-8.21
-3.02
1.65
5.35
8.00
9.73
10.77
11.26
11.33
11.12
10.79
10.55
10.50
10.66
10.99
11.49
12.20
13.08
13.92
14.36
14.08
12.87
10.93
8.67
6.51
4.72
3.21
1.73
0.16
-1.40
-2.65
-3.19
-2.87
-1.89
-0.92
-0.74
-1.88
-4.33
-7.43
-10.20
-11.63
-11.23
-9.24
-6.40
-3.52
-1.09
1.01
3.26
6.09
9.59
13.17
15.99
17.30
16.90
15.26
13.30
11.83
11.26
11.46
11.94
12.13
11.85
11.34
11.08
11.53
12.84
14.68
16.50
17.72
17.96
17.21
15.66
13.65
11.51
9.39
7.33
5.30
3.22
1.00
-1.39
-4.04
-6.96
-10.18
-13.54
-16.74
-19.23
-20.38
-19.63
-16.79
-12.13
-6.35
-0.38
4.99
9.28
12.37
14.36
15.40
15.60
15.00
13.74
12.04
10.28
8.76
7.67
7.02
6.70
6.57
6.59
6.71
6.99
7.38
7.74
7.93
7.89
7.56
6.94
6.00
4.67
2.99
1.15
-0.53
-1.76
-2.32
-2.33
-2.14
-2.23
-2.92
-4.34
-6.30
-8.60
-11.08
-13.62
-16.13
-18.34
-19.79
-19.87
-18.22
-14.78
-10.04
-4.82
-0.03
3.65
6.00
7.19
7.61
7.71
7.78
7.93
8.21
8.64
9.30
10.25
11.43
12.68
13.71
14.30
14.45
14.42
14.65
15.49
17.08
19.14
21.22
22.83
23.72
23.96
23.83
23.62
23.40
22.92
21.83
19.86
16.99
13.48
9.75
6.11
2.62
-0.88
-4.51
-8.19
-11.49
-13.78
-14.51
-13.42
-10.78
-7.17
-3.21
0.63
4.20
7.53
10.62
13.33
15.42
16.63
16.92
16.53
15.83
15.16
14.67
14.25
13.56
12.29
10.25
7.55
4.52
1.57
-0.90
-2.69
-3.80
-4.43
-4.87
-5.50
-6.49
-7.90
-9.58
-11.25
-12.56
-13.27
-13.34
-12.95
-12.48
-12.37
-12.83
-13.72
-14.56
-14.66
-13.46
-10.78
-6.87
-2.28
2.39
6.77
10.68
14.06
16.80
18.62
19.24
18.50
16.60
13.96
11.09
8.39
5.99
3.81
1.65
-0.66
-3.11
-5.57
-7.81
-9.63
-10.89
-11.66
-12.06
-12.32
-12.69
-13.33
-14.27
-15.45
-16.77
-18.13
-19.56
-21.11
-22.88
-24.88
-26.96
-28.86
-30.17
-30.61
-29.92
-28.03
-25.02
-21.09
-16.52
-11.64
-6.78
-2.18
1.89
5.30
7.90
9.58
10.34
10.22
9.44
8.28
7.08
6.02
5.20
4.55
3.97
3.46
3.04
2.83
2.78
2.83
2.78
2.53
1.97
1.13
0.18
-0.80
-1.72
-2.59
-3.40
-4.21
-5.04
-6.00
-7.29
-9.13
-11.76
-15.14
-18.91
-22.36
-24.63
-25.04
-23.31
-19.71
-14.89
-9.64
-4.60
-0.10
3.77
7.05
9.81
12.10
13.94
15.40
16.57
17.57
18.51
19.40
20.17
20.69
20.80
20.37
19.45
18.16
16.79
15.64
14.94
14.67
14.57
14.28
13.42
11.86
9.74
7.51
5.67
4.46
3.84
3.34
2.34
0.29
-2.92
-6.93
-10.97
-14.14
-15.77
-15.55
-13.64
-10.51
-6.74
-2.73
1.22
5.03
8.60
11.79
14.40
16.16
16.86
16.46
15.07
12.98
10.59
8.35
6.75
6.30
7.35
10.01
14.10
19.07
24.27
29.18
33.60
37.57
41.27
44.64
47.33
48.76
48.36
45.88
41.64
36.39
31.15
26.88
24.18
23.12
23.30
23.95
24.34
23.99
22.85
21.27
19.75
18.70
18.26
18.32
18.60
18.90
19.03
18.91
18.42
17.33
15.41
12.45
8.49
3.81
-1.03
-5.42
-8.81
-10.89
-11.65
-11.36
-10.46
-9.39
-8.49
-7.89
-7.53
-7.22
-6.76
-6.07
-5.25
-4.55
-4.21
-4.42
-5.18
-6.35
-7.75
-9.23
-10.73
-12.21
-13.73
-15.25
-16.79
-18.33
-19.86
-21.48
-23.25
-25.13
-26.91
-28.18
-28.36
-27.04
-24.13
-19.96
-15.22
-10.71
-7.00
-4.22
-2.21
-0.66
0.63
1.61
2.16
2.14
1.61
0.74
-0.19
-0.98
-1.58
-2.04
-2.45
-2.88
-3.36
-3.87
-4.48
-5.23
-6.18
-7.31
-8.48
-9.45
-10.01
-10.13
-9.95
-9.79
-9.96
-10.64
-11.77
-13.12
-14.40
-15.40
-16.07
-16.54
-17.01
-17.75
-19.03
-20.90
-23.25
-25.74
-27.83
-28.97
-28.76
-27.06
-24.01
-19.98
-15.44
-10.94
-6.99
-4.01
-2.16
-1.31
-1.11
-1.11
-1.00
-0.75
-0.57
-0.71
-1.25
-1.93
-2.33
-2.08
-1.11
0.21
1.33
1.82
1.62
1.12
0.87
1.28
2.33
3.46
3.93
3.21
1.25
-1.43
-4.06
-6.04
-7.29
-8.27
-9.68
-12.04
-15.27
-18.72
-21.55
-23.18
-23.59
-23.44
-23.43
-23.98
-24.82
-25.15
-24.08
-21.16
-16.66
-11.45
-6.60
-2.85
-0.28
1.40
2.74
4.00
5.19
6.09
6.60
6.86
7.29
8.43
10.56
13.62
17.16
20.51
23.11
24.65
25.13
24.78
23.91
22.83
21.77
20.85
20.04
19.29
18.39
17.18
15.50
13.29
10.61
7.59
4.33
0.84
-2.84
-6.69
-10.61
-14.43
-17.80
-20.39
-21.79
-21.73
-20.18
-17.27
-13.36
-8.92
-4.43
-0.30
3.19
5.84
7.59
8.32
8.10
7.07
5.51
3.87
2.55
1.82
1.72
2.06
2.47
2.62
2.40
1.89
1.37
1.03
0.93
0.91
0.73
0.19
-0.68
-1.59
-2.18
-2.13
-1.44
-0.33
0.76
1.44
1.46
0.78
-0.48
-2.18
-4.10
-6.04
-7.77
-8.90
-9.15
-8.38
-6.72
-4.53
-2.29
-0.29
1.59
3.87
7.33
12.64
20.05
29.17
39.18
49.08
58.07
65.75
71.98
76.61
79.30
79.55
76.96
71.66
64.45
56.81
50.39
46.54
45.86
47.94
51.63
55.41
57.82
57.88
55.36
50.64
44.68
38.43
32.59
27.30
22.35
17.33
12.01
6.53
1.15
-3.81
-8.22
-12.19
-16.04
-19.96
-23.99
-28.05
-31.95
-35.68
-39.32
-43.01
-46.82
-50.69
-54.42
-57.79
-60.60
-62.79
-64.40
-65.53
-66.33
-66.93
-67.44
-67.99
-68.67
-69.33
-69.62
-69.00
-66.94
-63.23
-58.17
-52.46
-47.02
-42.62
-39.58
-37.69
-36.44
-35.30
-33.85
-31.98
-29.63
-26.89
-23.98
-21.38
-19.81
-19.97
-22.17
-25.88
-29.84
-32.48
-32.64
-30.11
-25.65
-20.56
-15.85
-11.87
-8.27
-4.51
-0.53
3.06
5.27
5.37
3.44
0.52
-1.79
-2.12
0.03
4.00
8.25
11.06
11.34
8.89
4.49
-0.53
-4.87
-7.59
-8.33
-7.15
-4.47
-0.97
2.62
5.80
8.59
11.67
16.13
22.85
31.78
41.65
50.20
55.10
54.77
49.02
38.94
26.42
13.38
1.38
-8.53
-15.66
-19.53
-19.87
-16.71
-10.54
-2.22
7.12
16.34
24.64
31.63
37.48
42.58
47.26
51.35
54.10
54.34
51.04
43.83
33.20
20.45
7.17
-5.23
-15.85
-24.39
-30.97
-35.87
-39.39
-41.86
-43.49
-44.45
-44.85
-44.83
-44.62
-44.70
-45.81
-48.66
-53.54
-60.12
-67.35
-73.78
-77.98
-78.87
-75.96
-69.30
-59.43
-47.22
-33.85
-20.75
-9.28
-0.42
5.66
9.54
12.40
15.46
19.54
24.71
30.39
35.63
39.45
41.11
40.26
37.07
32.14
26.45
21.07
16.83
14.12
12.67
11.82
10.88
9.42
7.44
5.19
2.90
0.64
-1.74
-4.32
-6.96
-9.17
-10.36
-10.12
-8.30
-4.99
-0.24
6.01
13.86
23.19
33.36
43.14
51.04
55.94
57.54
56.48
54.07
51.54
49.56
48.02
46.22
43.45
39.36
34.12
28.32
22.68
17.65
13.43
9.91
6.96
4.53
2.62
1.27
0.43
-0.02
-0.33
-0.75
-1.40
-2.35
-3.51
-4.71
-5.86
-6.89
-7.78
-8.64
-9.65
-10.94
-12.63
-14.64
-16.81
-18.95
-20.86
-22.38
-23.36
-23.59
-22.82
-20.83
-17.54
-13.17
-8.26
-3.49
0.49
3.33
5.05
5.91
6.21
6.19
5.85
5.16
4.11
2.82
1.52
0.48
-0.16
-0.42
-0.42
-0.28
-0.05
0.30
0.78
1.39
1.96
2.35
2.39
2.01
1.17
-0.04
-1.56
-3.22
-4.86
-6.39
-7.83
-9.35
-11.12
-13.19
-15.27
-16.81
-17.15
-15.79
-12.77
-8.54
-3.87
0.49
4.03
6.63
8.40
9.54
10.11
10.17
9.77
9.02
8.11
7.23
6.51
5.93
5.45
5.09
4.87
4.90
5.19
5.61
5.93
5.85
5.21
4.05
2.61
1.16
-0.03
-0.88
-1.50
-2.03
-2.69
-3.62
-4.87
-6.41
-8.17
-10.01
-11.67
-12.79
-13.03
-12.18
-10.25
-7.53
-4.55
-1.98
-0.25
0.52
0.63
0.66
1.22
2.62
4.80
7.34
9.81
12.03
14.13
16.37
18.95
21.64
23.93
25.09
24.66
22.73
19.86
16.71
13.82
11.33
9.04
6.53
3.64
0.51
-2.44
-4.75
-6.19
-6.95
-7.47
-8.42
-10.25
-13.01
-16.30
-19.38
-21.51
-22.15
-21.15
-18.74
-15.40
-11.67
-7.93
-4.43
-1.25
1.58
4.03
6.03
7.50
8.36
8.73
8.74
8.59
8.44
8.48
8.69
9.03
9.33
9.39
9.02
8.09
6.59
4.71
2.68
0.77
-0.83
-2.06
-2.95
-3.57
-3.97
-4.13
-4.00
-3.44
-2.36
-0.64
1.74
4.73
8.15
11.78
15.37
18.72
21.70
24.28
26.50
28.52
30.57
32.83
35.35
37.88
39.88
40.69
39.80
37.23
33.50
29.53
26.16
23.77
22.16
20.79
19.10
16.82
14.17
11.54
9.30
7.65
6.48
5.58
4.74
3.88
2.92
1.85
0.53
-1.23
-3.56
-6.59
-10.32
-14.62
-19.12
-23.28
-26.47
-28.17
-28.08
-26.33
-23.37
-19.75
-15.88
-11.85
-7.54
-2.82
2.03
6.28
8.98
9.31
7.03
2.60
-2.97
-8.46
-12.89
-15.69
-16.81
-16.48
-15.08
-12.99
-10.62
-8.32
-6.41
-5.05
-4.25
-3.85
-3.61
-3.39
-3.11
-2.91
-3.09
-3.97
-5.78
-8.59
-12.10
-15.75
-18.88
-20.86
-21.37
-20.43
-18.43
-15.85
-13.14
-10.57
-8.23
-6.18
-4.49
-3.23
-2.41
-2.00
-1.86
-1.82
-1.78
-1.71
-1.60
-1.40
-0.98
-0.19
0.99
2.46
3.95
5.07
5.53
5.11
3.92
2.16
0.07
-2.13
-4.35
-6.46
-8.44
-10.27
-12.00
-13.69
-15.50
-17.51
-19.65
-21.66
-23.10
-23.48
-22.46
-19.96
-16.22
-11.70
-6.87
-2.19
2.01
5.47
8.07
9.81
10.77
11.19
11.28
11.26
11.24
11.25
11.30
11.37
11.46
11.57
11.57
11.36
10.83
9.92
8.64
7.06
5.30
3.50
1.81
0.29
-1.03
-2.22
-3.47
-5.01
-6.96
-9.41
-12.24
-15.21
-18.02
-20.30
-21.68
-21.87
-20.69
-18.19
-14.62
-10.36
-5.85
-1.52
2.36
5.65
8.30
10.38
11.93
13.04
13.79
14.24
14.47
14.51
14.40
14.16
13.83
13.44
13.01
12.51
11.89
11.08
10.05
8.90
7.71
6.63
5.65
4.61
3.33
1.63
-0.43
-2.65
-4.71
-6.46
-7.97
-9.50
-11.34
-13.52
-15.78
-17.50
-18.12
-17.24
-14.86
-11.36
-7.26
-3.15
0.66
4.01
6.90
9.30
11.20
12.46
13.04
12.92
12.22
11.20
10.12
9.17
8.49
8.04
7.72
7.35
6.87
6.23
5.53
4.85
4.19
3.49
2.64
1.55
0.20
-1.25
-2.58
-3.56
-4.07
-4.19
-4.10
-4.05
-4.31
-5.07
-6.39
-8.22
-10.34
-12.45
-14.14
-15.11
-15.17
-14.29
-12.54
-10.06
-7.00
-3.55
0.07
3.60
6.75
9.30
11.17
12.47
13.37
14.02
14.53
14.94
15.30
15.62
15.93
16.13
16.00
15.34
14.05
12.29
10.40
8.75
7.56
6.79
6.17
5.32
4.04
2.31
0.32
-1.63
-3.35
-4.83
-6.08
-7.23
-8.42
-9.71
-11.14
-12.71
-14.42
-16.21
-17.99
-19.53
-20.52
-20.63
-19.56
-17.29
-13.98
-9.99
-5.77
-1.79
1.66
4.48
6.70
8.43
9.75
10.68
11.22
11.46
11.55
11.76
12.29
13.26
14.55
15.83
16.73
16.90
16.24
14.88
13.17
11.43
9.88
8.53
7.24
5.81
4.18
2.44
0.92
-0.10
-0.58
-0.70
-0.79
-1.23
-2.20
-3.68
-5.44
-7.33
-9.23
-11.08
-12.84
-14.33
-15.23
-15.20
-14.04
-11.78
-8.77
-5.46
-2.32
0.32
2.32
3.68
4.52
4.98
5.16
5.15
5.02
4.90
4.88
5.01
5.30
5.70
6.10
6.31
6.31
6.09
5.73
5.31
4.87
4.39
3.82
3.14
2.35
1.46
0.46
-0.60
-1.70
-2.80
-3.87
-4.93
-6.07
-7.46
-9.16
-11.08
-12.96
-14.35
-14.82
-14.13
-12.33
-9.69
-6.66
-3.63
-0.78
1.82
4.25
6.51
8.47
9.97
10.90
11.26
11.27
11.14
11.03
10.94
10.73
10.28
9.60
8.83
8.20
7.79
7.46
6.96
6.07
4.79
3.26
1.78
0.47
-0.75
-2.11
-3.80
-5.81
-7.85
-9.54
-10.69
-11.40
-12.19
-13.56
-15.71
-18.34
-20.65
-21.73
-21.00
-18.42
-14.62
-10.47
-6.67
-3.56
-0.93
1.64
4.49
7.60
10.58
12.89
14.11
14.23
13.61
12.75
12.01
11.51
11.00
10.20
8.90
7.15
5.23
3.45
2.09
1.20
0.64
0.15
-0.59
-1.89
-3.98
-6.84
-10.28
-13.84
-17.00
-19.41
-21.10
-22.51
-24.27
-26.87
-30.19
-33.64
-36.17
-36.91
-35.37
-31.55
-25.84
-18.64
-10.37
-1.42
7.68
16.21
23.39
28.67
31.87
33.24
33.26
32.33
30.63
28.21
25.20
21.88
18.65
15.90
13.78
12.17
10.81
9.45
7.88
5.98
3.66
0.77
-2.61
-6.28
-9.64
-12.06
-13.10
-12.71
-11.30
-9.53
-8.01
-7.13
-7.05
-7.69
-8.95
-10.57
-12.16
-13.18
-13.12
-11.71
-9.10
-5.84
-2.58
0.23
2.48
4.37
6.20
8.05
9.65
10.60
10.48
9.25
7.22
4.96
3.06
1.80
1.16
0.88
0.65
0.34
-0.01
-0.23
-0.17
0.20
0.73
1.18
1.36
1.18
0.70
0.04
-0.71
-1.58
-2.65
-4.11
-6.07
-8.59
-11.56
-14.78
-17.97
-20.74
-22.73
-23.55
-23.01
-21.09
-18.07
-14.35
-10.39
-6.55
-3.01
0.11
2.81
5.01
6.66
7.75
8.36
8.60
8.68
8.75
8.85
8.97
9.02
8.95
8.76
8.54
8.39
8.37
8.53
8.75
8.95
8.92
8.56
7.81
6.74
5.46
4.12
2.81
1.53
0.23
-1.21
-2.86
-4.76
-6.91
-9.17
-11.30
-12.97
-13.81
-13.47
-11.83
-9.03
-5.48
-1.67
1.88
4.86
7.15
8.83
10.02
10.81
11.23
11.30
11.09
10.74
10.44
10.34
10.52
10.93
11.45
11.90
12.21
12.39
12.58
12.83
13.17
13.48
13.50
12.96
11.67
9.61
6.92
3.89
0.83
-2.02
-4.61
-6.99
-9.33
-11.81
-14.52
-17.39
-20.09
-22.18
-23.17
-22.75
-20.87
-17.71
-13.67
-9.16
-4.59
-0.22
3.75
7.15
9.75
11.39
11.99
11.64
10.64
9.34
8.06
6.99
6.18
5.56
5.07
4.62
4.22
3.84
3.49
3.12
2.69
2.19
1.58
0.90
0.08
-0.87
-1.96
-3.17
-4.45
-5.68
-6.73
-7.53
-8.10
-8.61
-9.28
-10.37
-11.89
-13.63
-15.23
-16.24
-16.32
-15.36
-13.48
-10.91
-7.98
-4.91
-1.88
0.96
3.52
5.69
7.39
8.59
9.34
9.73
9.92
10.06
10.29
10.67
11.21
11.80
12.25
12.48
12.37
11.95
11.38
10.76
10.19
9.61
8.85
7.74
6.22
4.33
2.25
0.22
-1.59
-3.16
-4.56
-5.92
-7.42
-9.19
-11.34
-13.86
-16.57
-19.10
-20.94
-21.64
-20.85
-18.59
-15.14
-10.98
-6.62
-2.40
1.44
4.79
7.56
9.62
10.90
11.40
11.25
10.70
10.00
9.32
8.80
8.49
8.36
8.43
8.66
8.99
9.31
9.53
9.57
9.39
9.05
8.59
8.10
7.56
6.88
5.91
4.58
2.86
0.91
-1.03
-2.75
-4.14
-5.27
-6.43
-7.92
-10.00
-12.66
-15.69
-18.66
-21.02
-22.29
-22.19
-20.71
-18.06
-14.63
-10.81
-6.90
-3.12
0.41
3.61
6.38
8.61
10.24
11.25
11.69
11.67
11.34
10.86
10.37
10.01
9.88
9.99
10.32
10.73
11.12
11.34
11.29
10.88
10.08
8.90
7.34
5.46
3.32
1.04
-1.25
-3.37
-5.19
-6.57
-7.56
-8.29
-9.05
-10.13
-11.80
-14.07
-16.71
-19.24
-21.11
-21.83
-21.16
-19.11
-15.95
-12.01
-7.63
-3.07
1.43
5.61
9.17
11.87
13.51
14.09
13.76
12.82
11.64
10.54
9.74
9.30
9.19
9.30
9.51
9.77
10.06
10.47
10.99
11.61
12.20
12.56
12.48
11.82
10.56
8.79
6.71
4.49
2.31
0.27
-1.65
-3.55
-5.51
-7.65
-10.01
-12.43
-14.65
-16.27
-16.99
-16.69
-15.40
-13.32
-10.72
-7.80
-4.73
-1.72
1.06
3.34
4.88
5.58
5.48
4.84
3.96
3.20
2.73
2.59
2.69
2.90
3.15
3.44
3.82
4.35
4.91
5.26
5.17
4.55
3.52
2.34
1.30
0.51
-0.19
-1.09
-2.47
-4.32
-6.32
-8.04
-9.20
-9.84
-10.39
-11.37
-13.06
-15.30
-17.49
-18.85
-18.79
-17.19
-14.48
-11.27
-8.14
-5.28
-2.54
0.33
3.44
6.67
9.64
11.97
13.45
14.12
14.27
14.18
14.07
14.04
13.98
13.77
13.23
12.24
10.77
8.92
6.88
4.89
3.19
1.84
0.78
-0.20
-1.35
-2.80
-4.54
-6.33
-7.89
-9.10
-9.99
-10.83
-11.96
-13.56
-15.64
-17.93
-20.03
-21.51
-22.05
-21.54
-19.97
-17.48
-14.21
-10.34
-6.09
-1.72
2.47
6.13
8.98
10.86
11.78
11.90
11.49
10.83
10.12
9.47
8.92
8.41
7.95
7.53
7.21
7.10
7.32
7.89
8.81
9.95
11.09
12.01
12.47
12.24
11.16
9.21
6.53
3.43
0.31
-2.50
-4.84
-6.79
-8.66
-10.73
-13.15
-15.82
-18.41
-20.40
-21.35
-21.07
-19.52
-16.91
-13.54
-9.73
-5.73
-1.78
1.90
5.10
7.60
9.24
10.01
10.06
9.67
9.17
8.81
8.69
8.69
8.60
8.30
7.78
7.21
6.81
6.71
6.87
7.09
7.04
6.53
5.52
4.12
2.53
0.97
-0.45
-1.75
-2.99
-4.27
-5.69
-7.30
-9.10
-11.09
-13.16
-15.16
-16.83
-17.81
-17.73
-16.38
-13.79
-10.34
-6.59
-3.12
-0.28
1.85
3.47
4.85
6.12
7.30
8.22
8.75
8.86
8.67
8.36
8.12
8.04
8.09
8.23
8.41
8.57
8.65
8.56
8.19
7.46
6.39
5.13
3.92
2.97
2.36
2.07
1.87
1.50
0.67
-0.82
-3.07
-5.99
-9.32
-12.68
-15.50
-17.34
-17.89
-17.11
-15.19
-12.52
-9.54
-6.58
-3.86
-1.45
0.64
2.43
3.94
5.14
5.98
6.43
6.49
6.25
5.86
5.42
4.99
4.65
4.35
4.10
3.87
3.70
3.61
3.55
3.39
2.94
2.15
1.02
-0.21
-1.33
-2.14
-2.66
-3.07
-3.63
-4.65
-6.24
-8.47
-11.15
-14.01
-16.74
-18.90
-20.08
-19.94
-18.38
-15.53
-11.78
-7.60
-3.44
0.35
3.63
6.33
8.38
9.70
10.17
9.78
8.70
7.36
6.24
5.82
6.34
7.72
9.63
11.67
13.47
14.83
15.70
16.05
15.87
15.05
13.54
11.38
8.72
5.80
2.84
0.04
-2.54
-4.88
-7.07
-9.23
-11.49
-13.96
-16.67
-19.56
-22.39
-24.79
-26.29
-26.45
-25.09
-22.24
-18.19
-13.48
-8.59
-4.00
0.08
3.56
6.45
8.74
10.41
11.37
11.61
11.24
10.51
9.69
9.01
8.56
8.29
8.05
7.68
7.13
6.51
6.04
5.88
6.06
6.41
6.62
6.38
5.51
4.04
2.23
0.41
-1.19
-2.50
-3.64
-4.83
-6.28
-8.08
-10.24
-12.60
-14.97
-17.10
-18.71
-19.50
-19.30
-18.01
-15.66
-12.43
-8.62
-4.61
-0.80
2.53
5.16
7.08
8.37
9.22
9.76
10.11
10.35
10.50
10.61
10.77
10.95
11.17
11.38
11.49
11.45
11.27
10.92
10.41
9.73
8.88
7.90
6.84
5.78
4.78
3.88
2.99
1.96
0.59
-1.30
-3.74
-6.66
-9.75
-12.62
-14.81
-15.96
-15.86
-14.57
-12.37
-9.56
-6.48
-3.42
-0.51
2.08
4.19
5.67
6.43
6.44
5.90
5.05
4.19
3.46
2.87
2.35
1.78
1.08
0.20
-0.85
-1.93
-2.96
-3.81
-4.42
-4.90
-5.42
-6.26
-7.65
-9.67
-12.22
-14.99
-17.67
-20.07
-22.20
-24.37
-27.06
-30.80
-35.88
-42.13
-48.80
-54.57
-57.93
-57.45
-52.25
-42.14
-27.76
-10.47
7.74
24.55
37.79
45.98
48.71
46.87
42.22
36.79
32.20
29.20
27.82
27.68
28.53
30.26
32.80
35.89
38.88
40.90
41.18
39.38
35.71
30.77
25.28
19.93
15.22
11.47
8.83
7.32
6.80
6.98
7.38
7.36
6.45
4.54
2.19
0.57
1.07
4.55
10.91
18.83
26.35
31.64
33.82
33.11
30.63
27.53
24.58
21.98
19.61
17.48
15.81
14.85
14.61
14.64
14.13
12.28
8.71
3.58
-2.39
-8.20
-12.93
-16.04
-17.50
-17.82
-17.78
-18.19
-19.53
-21.91
-25.16
-29.19
-33.92
-39.30
-44.97
-50.14
-53.58
-54.15
-51.19
-45.02
-36.62
-27.21
-17.67
-8.36
0.83
9.86
18.40
25.77
31.32
34.87
36.87
38.18
39.48
40.96
42.24
42.69
41.98
40.48
39.13
38.95
40.51
43.50
46.87
49.15
49.14
46.22
40.47
32.48
22.96
12.58
1.87
-8.77
-18.86
-27.87
-35.28
-40.77
-44.32
-46.31
-47.35
-48.11
-49.07
-50.35
-51.82
-53.19
-54.22
-54.83
-55.09
-55.12
-55.01
-54.73
-54.27
-53.52
-52.44
-50.94
-48.93
-46.37
-43.18
-39.32
-34.88
-30.02
-25.16
-20.86
-17.63
-15.81
-15.44
-16.24
-17.68
-19.16
-20.06
-19.81
-17.89
-14.06
-8.40
-1.51
5.59
11.79
16.18
18.29
18.18
16.44
14.04
12.36
12.87
16.65
23.78
32.97
41.89
47.95
49.51
46.54
40.56
33.73
27.62
22.60
17.98
12.84
6.80
0.48
-5.03
-8.75
-10.38
-10.43
-9.63
-8.58
-7.34
-5.60
-2.98
0.52
4.43
7.99
10.42
11.37
11.03
9.95
8.81
8.27
8.61
9.78
11.46
13.19
14.56
15.30
15.37
14.91
14.15
13.24
12.26
11.13
9.70
7.83
5.47
2.64
-0.57
-4.03
-7.55
-10.94
-13.89
-16.21
-17.78
-18.59
-18.74
-18.31
-17.36
-15.98
-14.20
-12.08
-9.78
-7.50
-5.45
-3.87
-2.91
-2.71
-3.31
-4.66
-6.49
-8.39
-9.93
-10.77
-10.81
-10.27
-9.48
-8.75
-8.25
-7.83
-7.29
-6.33
-4.77
-2.56
0.21
3.32
6.36
8.77
9.97
9.59
7.80
5.30
3.23
2.76
4.55
8.55
13.96
19.52
24.00
26.64
27.34
26.60
25.32
24.44
24.70
26.43
29.65
34.00
38.97
43.97
48.49
52.16
54.71
56.00
55.98
54.70
52.40
49.47
46.56
44.33
43.22
43.16
43.49
43.17
41.17
36.96
30.63
22.83
14.38
5.86
-2.54
-10.92
-19.42
-28.03
-36.40
-44.10
-50.64
-55.82
-59.63
-62.31
-64.19
-65.64
-66.96
-68.33
-69.66
-70.66
-70.82
-69.65
-66.89
-62.71
-57.65
-52.38
-47.38
-42.71
-38.05
-32.95
-27.14
-20.67
-13.89
-7.24
-1.03
4.64
9.84
14.66
19.07
22.89
25.86
27.78
28.59
28.39
27.30
25.43
22.82
19.57
15.90
12.28
9.30
7.35
6.50
6.34
6.20
5.47
3.88
1.55
-1.11
-3.73
-6.12
-8.36
-10.62
-13.02
-15.59
-18.18
-20.61
-22.59
-23.84
-24.07
-23.09
-20.92
-17.71
-13.80
-9.57
-5.34
-1.31
2.36
5.49
7.87
9.25
9.56
8.96
7.88
6.87
6.33
6.33
6.62
6.69
6.11
4.70
2.67
0.44
-1.57
-3.21
-4.56
-5.85
-7.20
-8.66
-10.32
-12.46
-15.42
-19.25
-23.41
-26.53
-26.86
-23.00
-14.66
-2.91
10.09
21.96
31.06
36.92
40.30
42.58
45.07
48.51
52.90
57.69
62.16
65.69
67.99
69.09
69.16
68.45
67.11
65.32
63.36
61.64
60.61
60.51
61.27
62.54
63.81
64.58
64.53
63.47
61.27
57.90
53.39
47.89
41.70
35.16
28.47
21.65
14.54
6.94
-1.34
-10.36
-20.21
-30.77
-41.80
-52.79
-63.02
-71.67
-78.08
-81.88
-83.11
-82.28
-80.08
-77.33
-74.46
-71.25
-66.86
-60.28
-51.01
-39.68
-28.11
-18.60
-12.99
-11.73
-13.69
-16.89
-19.58
-21.07
-21.83
-22.93
-25.22
-28.78
-32.98
-36.89
-39.85
-41.62
-42.23
-41.80
-40.38
-37.91
-34.40
-29.90
-24.48
-18.36
-11.80
-5.26
0.69
5.46
8.69
10.35
10.76
10.41
9.72
8.97
8.26
7.82
7.88
8.82
10.84
13.83
17.35
20.83
23.79
25.95
27.24
27.62
27.07
25.54
23.07
19.93
16.60
13.72
11.72
10.77
10.60
10.76
10.74
10.25
9.28
8.06
6.88
5.85
4.84
3.52
1.59
-1.10
-4.45
-8.01
-11.32
-14.00
-15.94
-17.32
-18.50
-19.90
-21.78
-24.20
-26.92
-29.56
-31.61
-32.48
-31.65
-28.85
-24.17
-18.14
-11.70
-5.93
-1.75
0.39
0.73
-0.02
-0.96
-1.42
-1.12
-0.41
0.16
0.04
-0.97
-2.58
-4.25
-5.41
-5.71
-5.27
-4.49
-3.75
-3.22
-2.68
-1.72
-0.08
2.17
4.51
6.28
6.93
6.38
4.87
2.75
0.18
-3.03
-7.26
-12.67
-18.86
-24.86
-29.36
-31.22
-29.91
-25.73
-19.71
-13.19
-7.31
-2.69
0.66
3.09
4.95
6.35
7.03
6.58
4.82
2.07
-0.85
-2.93
-3.35
-1.79
1.47
5.67
9.86
13.13
14.81
14.55
12.43
8.94
4.88
1.17
-1.46
-2.65
-2.53
-1.61
-0.58
-0.17
-0.97
-3.35
-7.36
-12.55
-18.01
-22.43
-24.59
-23.66
-19.65
-13.35
-6.09
0.67
5.93
9.25
10.83
11.25
11.23
11.38
12.08
13.41
15.19
17.07
18.70
19.82
20.26
20.05
19.23
17.92
16.30
14.55
12.94
11.64
10.72
10.00
9.07
7.48
4.92
1.39
-2.75
-6.92
-10.49
-13.07
-14.68
-15.68
-16.56
-17.66
-19.02
-20.26
-20.84
-20.32
-18.56
-15.79
-12.40
-8.77
-5.10
-1.39
2.34
5.93
8.98
11.07
11.82
11.18
9.46
7.23
5.16
3.78
3.30
3.54
4.13
4.60
4.74
4.49
4.04
3.56
3.13
2.72
2.23
1.66
1.15
0.97
1.28
2.02
2.94
3.65
3.75
2.95
1.13
-1.64
-5.04
-8.55
-11.51
-13.31
-13.52
-12.15
-9.54
-6.25
-2.86
0.22
2.79
4.86
6.46
7.59
8.20
8.15
7.49
6.33
4.99
3.83
3.18
3.16
3.65
4.42
5.12
5.52
5.50
5.14
4.55
3.95
3.49
3.15
2.72
1.82
0.01
-2.95
-6.95
-11.50
-15.87
-19.28
-21.18
-21.40
-20.17
-18.02
-15.66
-13.65
-12.32
-11.66
-11.33
-10.85
-9.79
-7.94
-5.37
-2.31
0.95
4.17
7.17
9.85
12.12
13.94
15.28
16.26
17.08
18.02
19.33
21.14
23.44
26.00
28.54
30.69
32.09
32.54
31.99
30.61
28.63
26.43
24.17
21.88
19.42
16.59
13.26
9.40
5.10
0.53
-4.15
-8.83
-13.34
-17.48
-20.88
-23.14
-24.04
-23.57
-21.96
-19.47
-16.28
-12.32
-7.45
-1.61
4.95
11.61
17.61
22.30
25.40
26.97
27.38
26.98
26.00
24.54
22.64
20.50
18.35
16.55
15.33
14.80
14.80
15.03
15.13
14.78
13.89
12.48
10.78
9.04
7.46
6.09
4.88
3.71
2.45
1.09
-0.31
-1.57
-2.58
-3.35
-4.10
-5.15
-6.72
-8.82
-11.15
-13.31
-14.91
-15.86
-16.35
-16.74
-17.17
-17.44
-17.08
-15.49
-12.39
-7.88
-2.43
3.33
8.82
13.67
17.69
20.76
22.82
23.86
23.95
23.37
22.46
21.62
21.07
20.70
19.96
17.91
13.63
6.82
-1.80
-10.38
-16.70
-19.18
-17.73
-13.97
-10.37
-9.12
-10.87
-14.61
-18.32
-19.98
-18.58
-14.16
-7.51
0.44
8.85
16.78
22.97
25.89
24.08
16.78
4.24
-12.22
-30.75
-49.40
-66.53
-80.78
-90.95
-96.06
-95.43
-89.05
-77.78
-63.26
-47.55
-32.67
-20.08
-10.61
-4.38
-1.11
-0.20
-0.96
-2.59
-4.22
-5.07
-4.50
-2.25
1.37
5.73
10.01
13.61
16.39
18.71
21.21
24.43
28.55
33.13
37.38
40.30
41.11
39.34
34.95
28.22
19.64
9.89
-0.28
-10.13
-19.15
-27.18
-34.51
-41.70
-49.37
-57.89
-67.09
-76.28
-84.28
-89.98
-92.58
-91.85
-88.02
-81.47
-72.41
-60.70
-46.04
-28.50
-8.86
11.26
29.83
45.04
56.02
63.01
67.06
69.46
71.14
72.45
73.21
73.12
72.01
69.99
67.36
64.45
61.45
58.46
55.51
52.68
50.13
47.95
46.21
44.72
43.14
40.98
37.79
33.26
27.38
20.42
13.00
5.83
-0.28
-4.77
-7.40
-8.32
-7.94
-6.77
-5.20
-3.37
-1.33
0.95
3.37
5.68
7.46
8.36
8.12
6.68
4.27
1.28
-1.66
-3.98
-5.25
-5.41
-4.73
-3.73
-2.96
-2.70
-2.90
-3.24
-3.43
-3.39
-3.31
-3.58
-4.50
-6.04
-7.83
-9.36
-10.21
-10.42
-10.42
-10.90
-12.50
-15.47
-19.58
-24.14
-28.37
-31.60
-33.43
-33.71
-32.44
-29.65
-25.49
-20.25
-14.48
-8.89
-4.24
-0.96
0.81
1.33
1.04
0.33
-0.53
-1.45
-2.34
-3.05
-3.34
-2.99
-1.86
-0.12
1.74
3.08
3.36
2.38
0.44
-1.76
-3.56
-4.62
-5.24
-6.11
-7.87
-10.65
-13.93
-16.75
-18.27
-18.39
-17.81
-17.70
-19.01
-21.83
-25.22
-27.68
-27.79
-24.83
-19.13
-11.70
-3.79
3.60
9.95
15.07
18.89
21.23
21.85
20.60
17.74
13.83
9.65
5.87
2.84
0.59
-1.05
-2.24
-2.94
-3.03
-2.43
-1.29
0.03
1.09
1.63
1.72
1.64
1.81
2.56
3.93
5.64
7.22
8.18
8.31
7.68
6.67
5.75
5.32
5.58
6.51
7.99
9.94
12.36
15.27
18.54
21.90
24.97
27.43
29.12
29.98
30.08
29.45
28.08
25.84
22.61
18.30
12.89
6.50
-0.50
-7.55
-13.93
-18.99
-22.25
-23.71
-23.77
-23.11
-22.49
-22.53
-23.56
-25.74
-29.00
-33.11
-37.79
-42.61
-47.14
-50.99
-53.89
-55.79
-56.87
-57.58
-58.34
-59.63
-61.65
-64.33
-67.33
-70.10
-71.95
-72.33
-70.90
-67.95
-64.35
-61.25
-59.79
-60.62
-63.80
-68.97
-75.61
-83.21
-91.40
-99.69
-106.97
-111.32
-110.12
-100.61
-80.82
-50.41
-11.31
32.19
74.10
108.56
131.62
142.56
144.07
141.11
139.33
143.68
157.54
181.88
215.33
253.58
289.74
315.50
323.39
310.04
278.24
235.75
192.01
154.18
124.55
101.09
80.02
58.66
37.87
21.84
15.02
19.41
33.05
50.48
64.98
71.16
66.46
53.24
38.05
28.04
27.85
38.09
55.82
77.33
100.85
126.67
152.08
175.24
193.65
204.77
207.08
200.46
186.88
175.08
167.51
165.95
172.27
186.92
208.38
233.56
255.70
269.36
270.26
254.96
222.86
176.07
118.05
52.59
-16.83
-87.59
-157.36
-224.52
-288.41
-347.70
-400.18
-443.30
-474.52
-491.77
-494.28
-482.81
-459.98
-430.00
-396.63
-362.35
-328.43
-295.54
-264.54
-236.99
-214.75
-199.23
-190.62
-187.06
-185.22
-181.76
-174.70
-164.23
-152.56
-142.67
-136.74
-135.00
-135.20
-133.65
-126.85
-112.84
-91.75
-65.24
-35.56
-5.08
23.53
46.94
61.30
63.31
51.95
29.65
2.09
-23.67
-41.67
-49.09
-46.51
-36.83
-23.57
-9.36
4.31
16.57
26.55
32.99
34.88
32.24
26.66
20.96
18.20
20.21
26.65
35.27
42.86
46.90
46.60
43.11
38.61
35.08
33.33
32.77
32.18
30.54
28.04
26.19
27.15
32.59
42.64
55.29
67.26
75.50
78.79
78.77
79.37
84.60
96.50
113.33
129.88
139.32
135.78
116.10
80.24
30.66
-28.64
-92.39
-153.85
-205.01
-237.81
-246.26
-228.67
-188.36
-132.38
-69.02
-5.21
54.26
106.22
147.77
176.12
189.38
188.30
176.88
161.27
147.30
138.05
133.10
129.79
125.50
119.63
114.00
111.54
114.43
122.65
133.89
144.53
150.94
150.72
143.09
128.77
109.61
88.16
67.25
49.39
36.11
27.56
22.54
19.21
15.90
11.98
7.77
4.28
2.33
2.06
2.89
3.82
4.04
3.09
0.97
-2.29
-6.97
-13.87
-24.18
-38.89
-57.92
-79.68
-101.03
-118.21
-128.18
-129.88
-124.48
-114.70
-103.54
-93.21
-84.68
-78.12
-73.61
-71.64
-73.08
-78.74
-88.82
-102.42
-117.53
-131.38
-141.06
-144.67
-141.95
-134.37
-124.40
-114.36
-105.28
-96.58
-86.72
-74.28
-59.02
-42.05
-25.08
-9.55
4.04
15.89
26.37
35.33
42.02
45.56
45.52
42.16
36.28
28.74
20.01
10.16
-0.67
-11.77
-21.71
-28.99
-32.93
-34.38
-35.32
-37.94
-43.30
-50.78
-58.56
-64.75
-68.39
-69.76
-69.71
-68.72
-66.40
-61.85
-54.68
-45.96
-38.10
-33.95
-35.26
-41.86
-51.79
-62.30
-71.12
-77.18
-80.59
-82.09
-82.30
-81.43
-79.22
-75.07
-68.23
-58.03
-44.01
-26.30
-5.77
15.84
36.32
53.64
66.63
75.26
80.55
83.97
86.68
89.29
91.75
93.69
94.59
93.87
90.91
85.14
76.32
64.83
51.70
38.21
25.33
13.32
1.93
-8.96
-18.64
-25.40
-27.09
-22.14
-10.49
6.44
26.35
47.19
67.72
87.44
105.91
122.17
134.75
142.55
145.69
146.21
147.51
153.08
164.82
182.19
202.30
221.31
236.09
245.14
248.60
247.20
241.17
229.69
211.38
185.64
153.61
118.40
84.10
54.03
29.51
9.60
-8.13
-26.14
-45.54
-65.40
-83.17
-95.62
-100.66
-98.58
-92.68
-88.41
-91.87
-107.81
-137.79
-179.16
-225.17
-266.46
-293.47
-299.18
-281.01
-241.32
-186.26
-123.46
-59.36
2.47
61.12
117.09
170.09
217.87
256.65
282.77
294.53
293.09
281.83
264.65
244.32
221.66
195.78
165.66
131.24
94.12
57.04
23.07
-5.36
-26.92
-41.28
-49.05
-51.57
-51.04
-50.24
-51.91
-57.75
-67.57
-79.31
-89.87
-96.67
-98.73
-97.22
-94.68
-93.82
-96.47
-103.13
-113.10
-125.02
-137.38
-149.05
-159.77
-170.52
-183.26
-200.24
-222.61
-249.33
-276.87
-299.99
-313.57
-314.06
-300.38
-273.98
-238.61
-199.54
-162.72
-133.43
-114.11
-103.20
-95.47
-84.18
-64.45
-35.93
-2.43
29.81
55.24
72.05
82.21
89.56
97.21
105.92
113.87
119.56
122.83
124.73
127.67
133.46
142.33
152.77
162.48
168.84
171.59
171.94
171.28
171.33
173.24
177.38
183.82
192.76
203.64
217.65
236.01
251.64
256.88
245.60
216.54
174.20
133.77
99.77
73.47
55.05
44.25
39.41
39.92
44.61
51.57
58.40
61.84
61.05
56.75
50.23
43.55
38.69
36.58
36.92
38.23
37.60
33.61
26.29
17.05
8.92
5.48
9.47
21.80
41.09
63.38
84.09
98.43
102.09
92.37
68.91
33.57
-9.91
-56.73
-102.26
-142.07
-172.73
-192.10
-199.49
-195.69
-182.83
-163.92
-141.92
-118.94
-95.58
-71.29
-45.29
-17.79
9.44
33.23
50.10
57.82
56.51
48.57
37.94
28.33
21.59
16.90
11.35
1.51
-14.59
-36.34
-60.91
-84.56
-104.34
-119.18
-129.95
-138.56
-147.22
-157.82
-171.65
-189.40
-210.91
-234.44
-256.39
-272.01
-277.32
-271.49
-257.74
-242.22
-231.04
-227.10
-228.69
-230.52
-226.61
-213.15
-189.50
-157.31
-118.85
-76.02
-30.65
14.28
54.18
83.74
99.37
101.35
94.08
84.17
77.56
77.49
84.07
95.12
107.54
118.80
127.06
130.86
128.65
119.30
103.06
82.23
60.83
42.33
28.74
19.79
13.28
6.71
-1.16
-9.45
-15.54
-16.48
-12.15
-4.42
3.61
8.59
7.50
-2.56
-24.14
-58.36
-103.47
-155.98
-209.06
-254.52
-285.72
-300.05
-299.49
-288.71
-272.07
-240.15
-187.47
-114.83
-31.86
46.70
108.88
150.59
175.39
190.16
200.13
204.61
199.33
180.28
147.44
106.34
66.37
37.38
26.65
38.30
69.49
113.18
160.69
204.13
237.76
258.54
266.18
262.66
250.82
231.99
206.62
174.82
137.24
95.93
54.52
17.10
-10.22
-22.51
-19.69
-6.40
11.17
28.74
45.10
60.97
77.41
94.25
110.00
122.45
130.27
133.69
134.40
134.61
136.09
140.21
145.86
151.19
154.32
154.18
150.96
146.02
141.16
138.01
137.70
139.94
143.84
148.09
151.33
152.43
150.44
144.19
131.72
114.85
93.72
68.39
39.31
7.46
-25.56
-57.64
-86.45
-109.86
-126.10
-134.69
-135.74
-129.86
-118.09
-101.63
-81.66
-59.41
-36.14
-13.14
7.70
24.68
36.47
42.29
42.12
36.70
27.37
15.77
3.37
-9.11
-21.48
-33.86
-46.62
-60.04
-74.15
-88.76
-103.61
-118.39
-133.13
-148.06
-163.76
-181.41
-202.65
-228.98
-260.54
-294.66
-325.44
-344.87
-345.75
-324.93
-285.17
-234.44
-182.57
-137.56
-103.21
-79.67
-65.48
-59.35
-60.27
-65.71
-70.32
-66.75
-49.17
-16.98
23.45
60.77
83.55
85.11
65.40
29.45
-16.18
-65.99
-115.67
-160.55
-194.06
-208.45
-197.68
-160.92
-104.28
-39.48
20.12
64.18
88.35
94.32
87.49
73.12
53.62
27.96
-6.66
-51.99
-106.50
-165.30
-221.50
-268.73
-303.06
-323.55
-331.16
-327.47
-313.71
-290.76
-260.05
-224.12
-186.65
-151.53
-121.73
-98.33
-80.26
-64.91
-48.85
-29.08
-3.97
26.05
58.84
91.30
120.75
145.81
166.83
185.72
205.25
228.33
256.69
289.77
323.75
351.74
365.29
356.85
322.69
264.43
188.90
105.85
24.80
-47.70
-109.42
-161.88
-208.38
-251.75
-292.53
-328.61
-356.05
-370.92
-370.90
-356.29
-329.70
-295.07
-256.45
-217.60
-181.97
-152.83
-132.87
-123.20
-122.49
-126.70
-130.29
-128.12
-117.36
-98.21
-73.30
-45.99
-18.83
6.93
30.77
51.38
66.12
71.54
65.20
47.50
22.55
-2.97
-22.26
-30.84
-28.16
-16.83
-0.76
17.03
35.65
55.88
78.98
105.45
134.65
165.46
197.36
231.10
268.10
309.22
353.04
395.26
429.55
449.76
452.33
437.77
410.42
376.36
341.10
307.74
276.86
247.84
220.24
194.77
172.79
155.29
141.87
130.95
120.53
109.48
98.26
88.54
82.32
80.58
82.59
86.23
89.03
89.40
87.20
83.62
80.20
77.96
76.76
75.44
72.55
67.14
59.50
51.11
44.35
41.61
44.68
54.25
69.73
89.48
111.12
131.80
148.44
158.10
158.19
146.95
123.70
88.93
44.15
-8.65
-67.12
-128.54
-189.64
-246.69
-295.86
-333.90
-358.70
-369.37
-366.07
-349.53
-321.10
-282.88
-238.02
-190.55
-144.60
-103.52
-69.14
-41.78
-20.79
-5.25
5.74
13.13
18.27
22.85
28.38
35.37
43.14
49.79
53.17
52.33
48.43
44.92
46.42
56.95
77.93
107.22
139.62
168.72
189.25
198.82
198.26
190.81
180.52
171.02
165.03
164.33
169.79
180.86
194.63
205.72
207.57
195.30
168.67
133.55
100.34
79.83
78.33
94.72
121.12
146.69
162.25
163.62
151.68
130.09
102.27
69.57
31.31
-13.73
-65.52
-122.04
-179.47
-233.26
-279.06
-313.18
-332.82
-336.17
-322.72
-293.62
-251.71
-200.87
-145.36
-88.67
-33.36
18.50
64.35
100.47
122.13
124.82
105.69
64.74
4.95
-68.28
-148.12
-227.05
-297.32
-351.90
-385.38
-395.18
-382.31
-351.19
-307.99
-258.79
-207.91
-157.80
-110.01
-65.96
-26.93
6.76
36.47
64.67
93.14
121.14
144.90
159.50
162.01
153.81
140.58
129.69
126.56
132.37
144.11
156.65
165.16
166.84
161.30
149.79
134.60
118.22
102.40
87.37
71.59
52.60
29.04
2.50
-22.01
-37.62
-38.46
-22.00
10.73
56.69
112.68
176.05
243.20
307.63
359.37
387.04
382.02
342.67
275.81
194.94
115.36
48.93
0.55
-32.06
-56.29
-81.34
-114.54
-158.61
-210.19
-260.26
-296.17
-305.63
-281.21
-223.82
-143.66
-57.92
14.09
56.85
63.50
37.95
-6.55
-51.71
-79.88
-79.46
-47.96
7.90
74.98
137.99
184.06
205.69
201.66
176.05
135.95
88.82
40.57
-4.98
-44.88
-75.85
-93.77
-95.04
-78.96
-49.82
-16.49
10.55
23.50
20.28
4.65
-16.82
-39.20
-62.19
-89.72
-126.28
-172.30
-221.54
-261.79
-279.29
-264.53
-216.70
-144.62
-63.88
9.06
62.65
93.65
106.50
109.50
109.68
109.47
106.55
96.45
76.23
46.76
12.78
-19.45
-44.85
-61.61
-71.16
-76.49
-80.08
-82.66
-83.47
-81.21
-75.76
-68.80
-63.30
-62.30
-67.43
-78.12
-91.79
-105.02
-114.85
-120.00
-121.04
-119.86
-118.67
-118.97
-120.89
-123.29
-124.25
-121.92
-115.27
-104.48
-90.68
-75.66
-61.09
-48.12
-37.23
-28.42
-21.46
-16.17
-12.40
-9.76
-7.73
-5.62
-2.88
0.60
4.42
7.80
9.97
10.43
9.28
7.01
4.41
2.24
1.10
1.20
2.40
4.18
5.79
6.47
5.59
2.81
-1.75
-7.66
-14.19
-20.56
-26.19
-30.81
-34.44
-37.24
-39.05
-39.37
-37.49
-32.79
-25.23
-15.44
-4.60
6.08
15.63
23.58
29.83
34.35
37.14
38.20
37.70
36.02
33.84
31.71
29.96
28.49
26.98
25.15
22.91
20.44
18.03
16.04
14.66
13.99
13.94
14.27
14.67
14.73
14.12
12.60
10.15
6.94
3.26
-0.62
-4.63
-8.72
-12.97
-17.41
-22.04
-26.61
-30.58
-33.19
-33.58
-31.08
-25.49
-17.26
-7.29
3.31
13.56
22.84
30.89
37.49
42.31
44.91
44.83
42.03
37.04
30.89
24.78
19.68
16.12
14.14
13.56
14.09
15.49
17.49
19.57
20.92
20.66
18.24
13.71
7.86
1.91
-2.96
-6.12
-7.72
-8.48
-9.31
-10.87
-13.48
-17.02
-21.23
-25.52
-29.16
-31.17
-30.61
-26.82
-19.76
-10.20
0.52
10.79
19.29
25.25
28.56
29.60
28.93
27.07
24.31
20.91
17.03
13.02
9.38
6.72
5.47
5.70
7.04
8.91
10.73
12.07
12.82
13.05
12.82
12.16
10.88
8.83
5.96
2.50
-1.25
-5.01
-8.75
-12.64
-17.01
-22.12
-27.93
-33.92
-39.11
-42.23
-42.13
-38.16
-30.53
-20.26
-8.93
2.00
11.59
19.70
26.83
33.47
39.63
44.57
47.11
46.14
41.35
33.45
24.00
15.00
8.11
4.19
3.23
4.69
7.68
11.45
15.41
19.18
22.48
24.96
26.25
25.91
23.65
19.49
13.85
7.49
1.45
-3.31
-6.25
-7.39
-7.44
-7.59
-9.15
-13.13
-19.84
-28.70
-38.25
-46.62
-51.93
-52.90
-49.20
-41.37
-30.59
-18.36
-6.13
4.92
13.99
20.51
24.26
25.29
23.96
20.93
17.11
13.44
10.71
9.37
9.42
10.38
11.62
12.42
12.37
11.40
9.71
7.70
5.67
3.81
2.08
0.48
-0.95
-2.12
-2.88
-3.22
-3.29
-3.35
-3.73
-4.60
-6.02
-7.86
-9.87
-11.70
-12.86
-12.94
-11.59
-8.70
-4.53
0.49
5.80
10.89
15.39
19.00
21.48
22.53
21.96
19.68
15.87
11.14
6.29
2.21
-0.41
-1.24
-0.41
1.65
4.28
6.87
8.90
10.01
10.01
8.77
6.31
2.79
-1.47
-6.08
-10.54
-14.44
-17.55
-19.79
-21.29
-22.35
-23.34
-24.58
-26.21
-28.05
-29.54
-29.89
-28.31
-24.39
-18.24
-10.59
-2.42
5.31
11.92
17.11
20.82
23.03
23.64
22.47
19.52
15.03
9.71
4.51
0.42
-1.86
-2.09
-0.56
2.00
4.74
7.02
8.49
9.17
9.26
8.98
8.40
7.42
5.94
4.00
1.79
-0.45
-2.54
-4.51
-6.60
-9.04
-11.97
-15.26
-18.42
-20.78
-21.53
-19.99
-15.80
-9.03
-0.28
9.35
18.56
26.15
31.25
33.52
33.22
31.07
27.91
24.50
21.33
18.56
16.05
13.44
10.48
7.05
3.38
-0.05
-2.60
-3.79
-3.50
-2.01
-0.06
1.56
2.22
1.61
-0.11
-2.52
-5.08
-7.36
-9.08
-10.20
-10.84
-11.33
-12.19
-13.88
-16.57
-19.85
-22.82
-24.21
-22.86
-18.21
-10.66
-1.55
7.30
14.25
18.29
19.43
18.53
16.64
14.78
13.38
12.30
11.11
9.45
7.24
4.80
2.59
0.99
0.17
-0.01
0.20
0.42
0.39
-0.08
-1.07
-2.60
-4.70
-7.36
-10.48
-13.79
-16.87
-19.25
-20.56
-20.73
-20.00
-18.91
-17.86
-16.92
-15.78
-13.73
-10.21
-5.05
1.38
8.39
15.16
21.11
25.98
29.64
32.08
33.00
32.20
29.57
25.47
20.66
16.25
13.28
12.35
13.30
15.17
16.65
16.46
13.97
9.37
3.56
-2.29
-7.21
-10.74
-13.03
-14.58
-16.03
-17.89
-20.49
-23.96
-28.21
-32.87
-37.20
-40.17
-40.74
-38.16
-32.30
-23.74
-13.69
-3.64
5.05
11.57
15.62
17.37
17.14
15.29
12.11
7.81
2.69
-2.82
-8.13
-12.61
-15.72
-17.28
-17.43
-16.60
-15.27
-13.83
-12.47
-11.21
-10.01
-8.94
-8.19
-8.05
-8.84
-10.73
-13.73
-17.64
-22.09
-26.54
-30.31
-32.70
-33.08
-31.03
-26.49
-19.74
-11.39
-2.20
7.02
15.56
22.91
28.68
32.69
34.88
35.35
34.26
31.94
28.76
25.24
21.95
19.45
18.11
17.98
18.69
19.65
20.19
19.94
18.89
17.37
15.77
14.31
12.81
10.89
8.13
4.42
0.03
-4.49
-8.62
-12.05
-14.79
-16.85
-18.20
-18.48
-17.14
-13.79
-8.44
-1.62
5.75
12.75
18.72
23.41
26.79
28.99
30.01
29.73
28.10
25.31
21.85
18.35
15.47
13.58
12.80
12.92
13.62
14.62
15.79
17.13
18.68
20.39
22.01
23.23
23.63
22.97
21.23
18.61
15.40
11.94
8.43
4.88
1.08
-3.25
-8.37
-14.36
-20.91
-27.30
-32.41
-34.93
-33.91
-29.01
-20.83
-10.70
-0.34
8.77
15.75
20.57
23.76
25.92
27.43
28.19
27.82
25.91
22.52
18.10
13.53
9.78
7.54
7.11
8.32
10.73
13.77
16.88
19.60
21.59
22.54
22.20
20.46
17.40
13.31
8.66
3.97
-0.29
-3.92
-6.87
-9.22
-11.00
-12.16
-12.74
-12.88
-13.02
-13.70
-15.39
-18.04
-21.27
-24.38
-26.89
-28.78
-30.54
-32.82
-35.90
-39.38
-42.14
-42.74
-40.17
-34.34
-26.32
-18.20
-12.26
-10.22
-12.71
-18.89
-26.96
-34.92
-41.52
-46.55
-50.90
-55.51
-60.63
-65.61
-69.96
-74.19
-80.27
-90.46
-105.49
-123.45
-140.62
-153.93
-163.64
-173.50
-188.15
-209.06
-231.78
-247.06
-245.15
-221.05
-177.31
-122.59
-66.94
-17.32
24.55
60.84
94.37
126.08
154.46
177.25
193.31
204.16
213.62
226.59
247.64
279.30
320.72
367.17
410.58
441.51
452.17
439.07
404.19
354.06
296.81
239.32
185.28
135.46
89.23
46.25
6.74
-29.41
-63.28
-96.78
-130.65
-162.32
-185.13
-190.10
-169.21
-118.70
-41.06
55.42
158.57
254.92
332.17
381.08
396.86
380.04
336.33
275.11
207.08
141.53
84.46
38.32
2.84
-23.49
-42.75
-56.97
-68.24
-78.32
-88.19
-97.67
-105.56
-110.31
-110.64
-106.29
-98.11
-87.85
-77.67
-69.61
-65.21
-65.30
-69.92
-78.45
-89.81
-102.69
-115.84
-128.12
-138.66
-146.81
-152.12
-154.36
-153.52
-149.81
-143.70
-135.85
-126.91
-117.52
-108.14
-99.01
-90.17
-81.52
-73.00
-64.66
-56.73
-49.47
-43.15
-37.92
-33.82
-30.74
-28.63
-27.36
-26.80
-26.75
-26.96
-27.19
-27.21
-26.99
-26.60
-26.25
-26.14
-26.39
-26.99
-27.83
-28.77
-29.58
-30.04
-29.84
-28.69
-26.33
-22.75
-18.23
-13.28
-8.50
-4.33
-0.85
2.19
5.22
8.68
12.68
16.91
20.81
23.72
25.22
25.27
24.34
23.20
22.60
23.07
24.68
27.04
29.41
30.93
30.87
28.80
24.78
19.28
13.24
7.81
4.11
2.77
3.87
6.78
10.42
13.68
15.77
16.43
15.90
14.69
13.17
11.57
9.72
7.32
4.11
-0.07
-5.14
-10.86
-16.83
-22.41
-26.75
-28.87
-27.95
-23.70
-16.57
-7.60
1.87
10.69
18.31
24.76
30.25
34.76
37.82
38.54
36.17
30.66
22.87
14.42
7.08
2.04
-0.42
-0.91
-0.45
0.15
0.69
1.62
3.90
8.44
15.69
25.34
35.95
45.23
50.55
50.01
43.44
32.92
22.29
15.73
16.16
23.93
36.74
50.35
59.63
59.43
45.81
17.32
-23.74
-71.06
-115.45
-147.81
-162.17
-158.07
-140.27
-116.08
-91.78
-70.03
-49.38
-25.81
4.60
42.75
86.02
128.09
160.73
176.33
170.58
144.33
103.78
58.52
18.17
-10.93
-27.23
-33.27
-33.12
-29.84
-24.35
-16.11
-4.96
7.45
17.82
22.51
19.40
8.92
-6.07
-22.04
-36.47
-48.79
-60.00
-71.28
-82.77
-92.99
-99.32
-99.26
-91.72
-77.64
-59.88
-42.23
-28.24
-20.11
-18.25
-21.39
-27.19
-33.18
-37.50
-39.39
-39.14
-37.64
-35.86
-34.36
-33.12
-31.74
-29.80
-27.09
-23.87
-20.52
-17.48
-14.86
-12.56
-10.34
-8.08
-5.88
-3.94
-2.56
-1.90
-1.93
-2.53
-3.47
-4.55
-5.57
-6.47
-7.22
-8.02
-9.06
-10.46
-12.13
-13.62
-14.33
-13.77
-11.70
-8.33
-4.14
0.30
4.60
8.54
12.06
15.10
17.47
18.90
19.23
18.46
16.90
15.02
13.34
12.22
11.77
11.79
11.99
12.02
11.76
11.31
10.97
11.05
11.73
12.97
14.45
15.80
16.62
16.72
16.20
15.41
14.82
14.85
15.64
16.95
18.30
19.18
19.20
18.33
16.83
15.20
13.93
13.42
13.99
15.80
18.54
21.36
22.77
21.13
15.38
5.75
-5.99
-17.18
-25.28
-29.04
-28.92
-26.69
-24.44
-23.47
-23.93
-25.01
-25.72
-25.47
-24.23
-22.35
-20.14
-17.65
-14.78
-11.37
-7.57
-3.96
-1.34
-0.42
-1.52
-4.44
-8.52
-12.93
-16.89
-20.02
-22.28
-23.89
-25.17
-26.36
-27.46
-28.30
-28.49
-27.58
-25.20
-21.23
-15.89
-9.71
-3.38
2.50
7.50
11.41
14.27
16.26
17.55
18.31
18.67
18.67
18.44
18.14
18.06
18.54
19.83
22.01
24.92
28.11
31.00
32.99
33.59
32.54
29.85
25.83
21.07
16.24
11.92
8.51
6.11
4.49
3.32
2.25
1.00
-0.67
-2.92
-5.88
-9.54
-13.52
-17.20
-19.68
-20.13
-18.21
-14.21
-8.95
-3.50
1.28
5.01
7.62
9.32
10.17
10.18
9.32
7.79
6.10
4.93
4.84
6.00
7.94
9.92
11.19
11.45
10.92
10.24
10.06
10.74
11.93
13.05
13.41
12.72
11.30
9.73
8.56
7.94
7.49
6.59
4.86
2.36
-0.37
-2.65
-4.16
-5.00
-5.82
-7.23
-9.46
-12.08
-14.20
-14.91
-13.66
-10.58
-6.35
-1.92
1.88
4.62
6.30
7.13
7.43
7.44
7.32
7.23
7.31
7.65
8.27
9.11
9.95
10.56
10.70
10.17
8.91
7.04
4.89
2.77
0.99
-0.38
-1.45
-2.42
-3.41
-4.43
-5.33
-5.96
-6.26
-6.29
-6.24
-6.29
-6.53
-7.01
-7.66
-8.32
-8.73
-8.54
-7.37
-5.05
-1.71
2.21
6.07
9.30
11.51
12.67
12.95
12.57
11.71
10.45
8.94
7.37
5.96
4.92
4.27
3.91
3.63
3.40
3.28
3.44
3.99
4.89
5.91
6.76
7.10
6.75
5.73
4.14
2.21
0.14
-1.87
-3.68
-5.24
-6.62
-7.92
-9.20
-10.41
-11.31
-11.61
-11.00
-9.39
-6.95
-4.10
-1.30
0.98
2.53
3.28
3.31
2.69
1.52
-0.06
-1.86
-3.53
-4.72
-5.11
-4.60
-3.29
-1.45
0.52
2.20
3.26
3.50
2.84
1.42
-0.59
-2.91
-5.34
-7.81
-10.39
-13.27
-16.51
-20.07
-23.74
-27.30
-30.66
-33.90
-37.26
-40.89
-44.75
-48.49
-51.46
-52.94
-52.23
-48.87
-42.60
-33.34
-21.14
-6.26
10.63
28.50
45.92
61.50
74.13
83.23
88.63
90.26
87.83
80.93
69.34
53.51
34.81
15.42
-2.23
-16.22
-25.48
-29.98
-30.45
-27.94
-23.51
-18.02
-12.08
-6.28
-1.17
2.60
4.44
3.91
1.04
-3.55
-8.72
-13.21
-16.03
-16.85
-15.93
-13.89
-11.38
-8.79
-6.22
-3.54
-0.74
2.07
4.71
6.89
8.47
9.40
9.77
9.63
9.05
8.06
6.78
5.35
3.96
2.81
2.00
1.48
1.01
0.37
-0.66
-2.15
-4.00
-5.98
-7.84
-9.46
-10.82
-12.03
-13.27
-14.65
-16.11
-17.40
-18.25
-18.31
-17.38
-15.50
-12.79
-9.48
-5.87
-2.16
1.44
4.65
7.25
9.05
10.04
10.43
10.57
10.86
11.53
12.61
13.86
14.97
15.70
15.98
15.89
15.62
15.31
14.87
14.07
12.58
10.22
7.11
3.67
0.54
-1.77
-3.05
-3.45
-3.45
-3.57
-4.23
-5.51
-7.19
-8.74
-9.62
-9.39
-7.78
-4.81
-0.79
3.78
8.40
12.57
15.93
18.24
19.48
19.69
19.07
17.89
16.49
15.17
14.15
13.50
13.12
12.87
12.52
12.08
11.59
11.20
11.00
10.93
10.76
10.27
9.35
7.94
6.21
4.21
1.98
-0.59
-3.56
-6.85
-10.33
-13.78
-17.01
-19.97
-22.73
-25.32
-27.60
-29.32
-30.09
-29.54
-27.40
-23.67
-18.55
-12.63
-6.63
-1.22
3.02
5.92
7.68
8.77
9.73
10.95
12.53
14.23
15.64
16.42
16.49
16.09
15.75
16.05
17.54
20.49
24.68
29.29
33.05
34.40
32.11
25.70
15.79
4.05
-7.35
-16.57
-22.58
-25.51
-26.34
-26.39
-26.72
-27.67
-28.89
-29.60
-29.04
-26.77
-22.91
-17.95
-12.58
-7.46
-3.20
-0.26
1.09
0.76
-1.01
-3.69
-6.52
-8.63
-9.27
-8.16
-5.42
-1.72
2.06
4.96
6.27
5.76
3.77
1.06
-1.49
-3.19
-3.75
-3.34
-2.43
-1.50
-0.93
-0.90
-1.37
-2.26
-3.44
-4.76
-6.19
-7.69
-9.22
-10.74
-12.14
-13.24
-13.82
-13.67
-12.67
-10.86
-8.38
-5.41
-2.15
1.32
4.95
8.74
12.51
16.02
18.84
20.63
21.20
20.53
18.84
16.43
13.54
10.27
6.68
2.81
-1.17
-4.95
-8.12
-10.36
-11.55
-11.80
-11.47
-11.03
-10.93
-11.51
-12.86
-14.86
-17.22
-19.59
-21.61
-23.07
-23.95
-24.48
-25.00
-25.98
-27.66
-29.94
-32.45
-34.64
-36.06
-36.63
-36.67
-36.77
-37.36
-38.51
-39.81
-40.56
-40.17
-38.52
-36.02
-33.50
-31.86
-31.68
-33.00
-35.38
-38.12
-40.38
-41.25
-39.73
-34.88
-26.15
-13.77
1.00
15.93
28.69
37.54
42.16
43.73
44.31
45.86
49.42
54.67
60.46
65.61
69.52
72.45
75.16
78.29
81.72
84.39
84.98
82.67
77.82
71.98
67.17
64.88
65.29
66.97
67.77
65.84
60.58
52.92
44.62
37.34
31.76
27.14
22.25
16.13
8.89
1.78
-3.49
-5.84
-5.35
-3.43
-1.94
-2.25
-4.57
-8.00
-11.19
-13.13
-13.60
-13.28
-13.14
-13.87
-15.52
-17.50
-19.06
-19.76
-19.59
-19.11
-18.99
-19.74
-21.46
-23.88
-26.53
-28.99
-30.97
-32.42
-33.33
-33.66
-33.28
-31.97
-29.58
-26.09
-21.74
-16.88
-11.90
-7.17
-3.00
0.40
2.87
4.34
4.91
4.85
4.54
4.26
4.15
4.13
4.03
3.78
3.54
3.56
4.08
5.13
6.39
7.39
7.59
6.68
4.62
1.60
-2.03
-5.86
-9.39
-12.14
-13.54
-13.18
-10.88
-6.83
-1.70
3.63
8.15
11.03
11.82
10.54
7.67
3.92
0.05
-3.36
-5.96
-7.67
-8.53
-8.62
-7.87
-6.28
-3.89
-0.97
2.02
4.55
6.16
6.61
5.98
4.51
2.56
0.36
-1.92
-4.19
-6.29
-7.97
-8.95
-9.04
-8.25
-6.86
-5.35
-4.17
-3.64
-3.84
-4.65
-5.86
-7.30
-8.89
-10.62
-12.45
-14.31
-16.18
-17.93
-19.56
-21.03
-22.26
-23.16
-23.54
-23.23
-22.15
-20.31
-17.87
-15.02
-11.91
-8.65
-5.29
-1.86
1.63
5.20
8.79
12.30
15.47
18.06
19.75
20.37
19.94
18.68
16.93
14.98
12.98
10.98
8.90
6.68
4.32
1.98
-0.15
-1.85
-3.01
-3.70
-4.07
-4.34
-4.66
-5.08
-5.62
-6.38
-7.51
-9.26
-11.83
-15.17
-18.95
-22.56
-25.29
-26.59
-26.22
-24.28
-21.17
-17.42
-13.47
-9.56
-5.75
-2.02
1.55
4.83
7.60
9.71
11.10
11.84
12.05
11.90
11.52
11.01
10.47
9.99
9.61
9.34
9.15
8.98
8.76
8.42
7.88
7.03
5.70
3.86
1.59
-0.92
-3.40
-5.61
-7.37
-8.63
-9.45
-10.00
-10.47
-11.01
-11.77
-12.86
-14.26
-15.82
-17.22
-18.03
-17.93
-16.75
-14.56
-11.65
-8.37
-4.99
-1.67
1.55
4.57
7.21
9.20
10.31
10.44
9.71
8.46
7.13
6.09
5.53
5.47
5.76
6.21
6.63
6.90
6.89
6.50
5.64
4.29
2.51
0.40
-1.86
-4.09
-6.12
-7.84
-9.25
-10.39
-11.31
-12.08
-12.77
-13.41
-13.98
-14.43
-14.79
-15.09
-15.28
-15.20
-14.61
-13.22
-10.81
-7.33
-2.95
1.96
6.92
11.44
15.15
17.89
19.60
20.38
20.37
19.68
18.46
16.84
15.01
13.22
11.76
10.81
10.38
10.32
10.38
10.32
10.01
9.43
8.66
7.76
6.79
5.76
4.74
3.89
3.34
3.17
3.28
3.44
3.37
2.77
1.44
-0.67
-3.47
-6.74
-10.17
-13.28
-15.57
-16.64
-16.21
-14.32
-11.29
-7.55
-3.50
0.61
4.54
8.13
11.19
13.52
14.94
15.46
15.26
14.64
13.91
13.29
12.77
12.31
11.83
11.40
11.12
11.10
11.33
11.64
11.74
11.32
10.15
8.20
5.59
2.53
-0.74
-4.08
-7.38
-10.54
-13.47
-16.03
-18.15
-19.80
-21.17
-22.45
-23.80
-25.13
-26.06
-26.10
-24.78
-21.94
-17.73
-12.65
-7.32
-2.17
2.51
6.67
10.39
13.68
16.45
18.58
19.85
20.21
19.82
18.92
17.92
17.15
16.77
16.66
16.57
16.23
15.52
14.56
13.54
12.61
11.71
10.63
9.13
7.15
4.86
2.56
0.55
-1.10
-2.54
-4.07
-6.07
-8.71
-12.05
-15.99
-20.32
-24.81
-29.10
-32.76
-35.26
-36.10
-34.96
-31.74
-26.68
-20.22
-12.94
-5.42
1.83
8.43
14.09
18.70
22.29
24.98
26.87
28.04
28.41
27.90
26.57
24.65
22.59
20.84
19.68
19.08
18.77
18.36
17.58
16.40
14.89
13.25
11.62
10.00
8.32
6.47
4.44
2.28
0.10
-1.96
-3.83
-5.59
-7.32
-9.07
-10.80
-12.43
-14.01
-15.71
-17.87
-20.65
-24.01
-27.42
-30.07
-31.17
-30.24
-27.35
-23.02
-17.97
-12.79
-7.86
-3.30
0.88
4.52
7.37
9.11
9.63
9.09
7.96
6.80
6.07
5.78
5.62
5.23
4.37
3.25
2.32
2.08
2.72
3.98
5.27
5.94
5.73
4.79
3.61
2.62
1.90
1.08
-0.38
-2.90
-6.43
-10.38
-13.95
-16.49
-17.89
-18.68
-19.66
-21.42
-24.00
-26.78
-28.82
-29.34
-28.01
-25.12
-21.28
-17.01
-12.55
-7.78
-2.56
3.13
8.91
14.13
18.11
20.38
20.91
20.05
18.38
16.44
14.71
13.35
12.39
11.74
11.30
11.06
10.97
11.06
11.26
11.50
11.64
11.54
11.09
10.27
9.17
7.86
6.54
5.25
3.98
2.55
0.84
-1.24
-3.73
-6.48
-9.31
-12.08
-14.68
-17.16
-19.50
-21.55
-22.99
-23.45
-22.56
-20.19
-16.50
-11.92
-6.96
-2.01
2.68
7.10
11.17
14.83
17.85
19.98
21.07
21.21
20.68
19.82
18.96
18.23
17.63
17.06
16.45
15.76
15.00
14.19
13.33
12.49
11.70
10.97
10.18
9.15
7.65
5.51
2.78
-0.29
-3.33
-6.09
-8.47
-10.63
-12.87
-15.41
-18.37
-21.66
-25.07
-28.24
-30.77
-32.17
-32.05
-30.18
-26.58
-21.49
-15.37
-8.82
-2.38
3.52
8.61
12.81
16.18
18.81
20.75
21.97
22.40
21.99
20.86
19.24
17.43
15.73
14.25
12.95
11.73
10.52
9.35
8.28
7.37
6.57
5.71
4.55
2.91
0.77
-1.72
-4.28
-6.61
-8.47
-9.82
-10.80
-11.69
-12.84
-14.48
-16.75
-19.49
-22.35
-24.84
-26.44
-26.73
-25.50
-22.75
-18.70
-13.77
-8.36
-2.93
2.21
6.80
10.68
13.80
16.15
17.79
18.77
19.25
19.43
19.48
19.59
19.79
20.02
20.07
19.74
18.94
17.66
15.99
14.08
12.08
9.99
7.81
5.56
3.21
0.80
-1.55
-3.74
-5.62
-7.13
-8.26
-9.10
-9.82
-10.67
-11.87
-13.67
-16.22
-19.42
-22.90
-26.03
-28.18
-28.74
-27.54
-24.70
-20.66
-15.89
-10.83
-5.82
-1.04
3.32
7.05
9.91
11.84
12.87
13.18
13.04
12.72
12.43
12.27
12.20
12.08
11.78
11.28
10.56
9.77
8.96
8.19
7.38
6.43
5.23
3.73
2.02
0.16
-1.70
-3.50
-5.22
-6.91
-8.62
-10.36
-12.15
-13.88
-15.50
-16.98
-18.24
-19.19
-19.57
-19.02
-17.19
-13.90
-9.21
-3.43
2.94
9.37
15.38
20.66
25.02
28.32
30.46
31.39
31.16
29.88
27.86
25.48
23.19
21.38
20.26
19.80
19.76
19.79
19.61
19.14
18.44
17.63
16.85
16.04
15.07
13.76
12.08
10.09
8.00
5.94
3.95
2.02
0.01
-2.23
-4.81
-7.79
-11.15
-14.78
-18.45
-21.87
-24.54
-26.07
-26.08
-24.48
-21.37
-17.10
-12.21
-7.21
-2.62
1.25
4.22
6.32
7.67
8.39
8.62
8.45
8.02
7.44
6.91
6.62
6.72
7.22
7.98
8.77
9.36
9.53
9.13
8.18
6.68
4.70
2.26
-0.61
-3.84
-7.40
-11.02
-14.41
-17.20
-19.21
-20.48
-21.34
-22.24
-23.61
-25.67
-28.30
-30.98
-33.08
-34.00
-33.36
-31.08
-27.41
-22.74
-17.53
-12.11
-6.69
-1.51
3.17
7.03
9.70
10.93
10.73
9.34
7.27
4.97
2.84
1.20
0.09
-0.45
-0.46
-0.03
0.66
1.33
1.60
1.18
-0.01
-1.85
-4.06
-6.34
-8.52
-10.66
-12.93
-15.45
-18.16
-20.71
-22.77
-24.11
-24.84
-25.48
-26.78
-29.35
-33.39
-38.40
-43.44
-47.39
-49.42
-49.38
-47.80
-45.58
-43.74
-42.98
-43.59
-45.51
-48.39
-51.44
-53.50
-53.12
-48.97
-40.42
-28.03
-13.43
1.13
13.49
22.46
28.01
31.03
32.82
34.33
35.95
37.55
38.77
39.28
38.95
37.70
35.56
32.66
29.21
25.56
22.26
19.89
18.95
19.60
21.62
24.37
27.08
29.07
29.99
29.92
29.31
28.83
29.17
30.60
32.97
35.74
38.18
39.73
40.16
39.51
38.03
35.94
33.32
30.29
26.96
23.64
20.71
18.50
17.17
16.57
16.42
16.40
16.29
16.08
15.91
15.90
16.15
16.46
16.39
15.49
13.54
10.61
7.19
3.87
1.20
-0.67
-1.98
-3.35
-5.47
-8.82
-13.42
-18.78
-23.89
-27.74
-29.56
-28.98
-26.11
-21.39
-15.29
-8.28
-0.79
6.43
12.55
16.75
18.63
18.48
17.18
15.80
15.03
14.80
14.40
13.04
10.39
6.93
3.74
1.92
1.94
3.30
4.88
5.59
5.04
3.70
2.66
2.71
3.98
5.48
5.91
4.28
0.58
-4.19
-8.65
-11.76
-13.39
-14.48
-16.31
-19.69
-24.49
-29.55
-33.26
-34.36
-32.47
-28.18
-22.78
-17.42
-12.80
-8.96
-5.53
-2.06
1.57
5.06
7.96
9.90
10.79
10.80
10.28
9.53
8.72
7.89
7.12
6.54
6.44
7.19
8.99
11.86
15.42
19.00
21.72
22.83
21.97
19.24
15.21
10.61
6.17
2.35
-0.74
-3.22
-5.36
-7.44
-9.72
-12.28
-15.03
-17.73
-20.02
-21.50
-21.88
-21.03
-19.02
-16.12
-12.65
-9.03
-5.61
-2.65
-0.40
1.07
1.78
1.88
1.56
1.09
0.71
0.65
1.01
1.81
2.97
4.35
5.73
6.91
7.73
8.07
7.93
7.37
6.53
5.58
4.65
3.76
2.77
1.52
-0.13
-2.22
-4.59
-7.04
-9.37
-11.59
-13.90
-16.54
-19.64
-23.00
-26.16
-28.44
-29.22
-28.22
-25.48
-21.39
-16.40
-10.95
-5.37
0.12
5.29
9.87
13.59
16.26
17.90
18.71
19.02
19.24
19.62
20.29
21.14
21.92
22.37
22.32
21.81
20.98
20.05
19.16
18.26
17.18
15.67
13.61
11.07
8.29
5.58
3.13
0.98
-1.02
-3.14
-5.60
-8.48
-11.71
-15.10
-18.55
-22.03
-25.57
-29.10
-32.40
-35.02
-36.40
-36.16
-34.16
-30.55
-25.76
-20.28
-14.51
-8.79
-3.35
1.64
6.00
9.59
12.28
14.02
14.80
14.65
13.68
12.10
10.12
8.05
6.19
4.76
3.91
3.65
3.95
4.76
5.96
7.49
9.21
10.93
12.35
13.18
13.20
12.32
10.54
7.94
4.66
0.77
-3.60
-8.27
-12.96
-17.33
-21.11
-24.16
-26.48
-28.10
-29.03
-29.07
-27.99
-25.52
-21.64
-16.62
-10.96
-5.23
0.13
4.99
9.38
13.50
17.45
21.13
24.29
26.70
28.23
29.00
29.29
29.40
29.56
29.73
29.77
29.41
28.45
26.78
24.46
21.67
18.65
15.54
12.46
9.42
6.43
3.55
0.90
-1.39
-3.26
-4.76
-6.00
-7.19
-8.49
-10.01
-11.77
-13.78
-16.00
-18.46
-21.19
-24.15
-27.14
-29.78
-31.54
-31.89
-30.47
-27.30
-22.73
-17.37
-11.89
-6.82
-2.43
1.24
4.26
6.76
8.77
10.21
11.03
11.25
11.11
10.93
11.04
11.57
12.46
13.45
14.26
14.71
14.80
14.69
14.52
14.30
13.87
13.01
11.50
9.31
6.53
3.48
0.48
-2.17
-4.36
-6.19
-7.84
-9.53
-11.40
-13.42
-15.53
-17.67
-19.76
-21.83
-23.73
-25.22
-25.83
-25.09
-22.66
-18.54
-13.17
-7.26
-1.50
3.56
7.71
10.99
13.51
15.35
16.52
16.95
16.61
15.67
14.39
13.13
12.10
11.36
10.80
10.24
9.54
8.66
7.72
6.85
6.15
5.60
5.04
4.19
2.82
0.77
-1.92
-5.03
-8.20
-11.12
-13.59
-15.61
-17.33
-19.01
-20.79
-22.72
-24.70
-26.63
-28.35
-29.72
-30.59
-30.77
-30.10
-28.39
-25.62
-21.88
-17.41
-12.52
-7.47
-2.51
2.23
6.60
10.48
13.69
16.01
17.24
17.24
16.10
14.15
11.89
9.92
8.70
8.31
8.54
8.87
8.75
7.94
6.50
4.82
3.35
2.45
2.23
2.62
3.46
4.47
5.46
6.23
6.52
6.09
4.74
2.50
-0.35
-3.36
-6.05
-8.10
-9.41
-10.07
-10.19
-9.84
-9.04
-7.72
-5.89
-3.67
-1.12
1.63
4.60
7.81
11.17
14.48
17.40
19.58
20.73
20.75
19.75
17.97
15.84
13.72
11.88
10.46
9.35
8.26
6.86
4.98
2.73
0.47
-1.34
-2.33
-2.43
-1.86
-1.14
-0.69
-0.80
-1.47
-2.57
-4.02
-5.80
-8.07
-10.93
-14.40
-18.20
-21.82
-24.71
-26.37
-26.50
-25.08
-22.25
-18.31
-13.58
-8.49
-3.59
0.54
3.50
5.12
5.60
5.40
5.11
5.24
5.98
7.39
9.47
12.29
15.92
20.13
24.34
27.58
28.82
27.30
23.00
16.63
9.40
2.62
-2.75
-6.17
-7.76
-7.96
-7.40
-6.69
-6.28
-6.43
-7.18
-8.54
-10.72
-13.92
-18.25
-23.45
-28.75
-33.03
-35.30
-35.01
-32.55
-28.90
-25.11
-21.90
-19.18
-16.44
-13.09
-8.95
-4.47
-0.47
2.39
4.00
4.81
5.62
6.98
9.03
11.26
12.91
13.40
12.66
11.22
9.89
9.38
9.99
11.34
12.75
13.51
13.34
12.29
10.77
9.19
7.79
6.54
5.21
3.63
1.78
-0.18
-2.13
-4.03
-5.96
-8.05
-10.37
-12.84
-15.17
-16.94
-17.71
-17.15
-15.14
-11.84
-7.60
-2.90
1.76
5.99
9.48
12.12
13.97
15.17
15.95
16.55
17.15
17.82
18.60
19.45
20.37
21.38
22.48
23.59
24.49
24.95
24.73
23.71
21.84
19.25
16.08
12.57
8.96
5.45
2.23
-0.52
-2.69
-4.25
-5.34
-6.18
-7.17
-8.62
-10.75
-13.40
-16.07
-18.04
-18.70
-17.67
-15.04
-11.20
-6.68
-1.99
2.58
6.87
10.79
14.18
16.81
18.39
18.70
17.82
15.97
13.64
11.24
9.01
6.89
4.56
1.70
-1.89
-6.08
-10.46
-14.52
-17.75
-19.80
-20.55
-20.09
-18.66
-16.67
-14.61
-12.98
-12.10
-12.04
-12.58
-13.28
-13.83
-14.14
-14.49
-15.45
-17.53
-20.91
-25.20
-29.50
-32.65
-33.63
-31.83
-27.32
-20.68
-12.88
-5.01
1.94
7.09
9.83
10.14
8.72
6.76
5.69
6.43
8.87
11.76
13.32
12.13
7.97
1.98
-3.96
-8.09
-9.56
-8.64
-6.29
-3.49
-0.86
1.40
3.20
4.33
4.49
3.49
1.40
-1.13
-3.30
-4.32
-4.00
-2.77
-1.53
-1.29
-2.74
-6.09
-10.80
-16.02
-20.59
-23.52
-24.17
-22.28
-17.99
-11.76
-4.29
3.64
11.24
17.85
23.05
26.73
29.15
30.71
31.82
32.74
33.44
33.71
33.31
32.20
30.51
28.55
26.60
24.79
23.09
21.33
19.36
17.11
14.72
12.32
10.08
8.05
6.13
4.21
2.24
0.23
-1.73
-3.58
-5.34
-7.15
-9.18
-11.46
-13.77
-15.55
-16.12
-14.89
-11.67
-6.73
-0.77
5.39
11.05
15.85
19.80
23.05
25.71
27.69
28.79
28.77
27.61
25.52
22.88
20.08
17.23
14.24
10.89
7.01
2.80
-1.23
-4.42
-6.23
-6.56
-5.84
-4.80
-4.20
-4.58
-6.00
-8.18
-10.60
-12.94
-15.02
-16.98
-18.97
-21.19
-23.71
-26.44
-29.14
-31.47
-33.10
-33.67
-32.92
-30.64
-26.86
-21.73
-15.57
-8.79
-1.89
4.61
10.29
14.74
17.85
19.72
20.69
21.15
21.43
21.70
21.97
22.20
22.36
22.50
22.73
23.01
23.12
22.67
21.27
18.71
15.21
11.24
7.46
4.36
2.04
0.25
-1.39
-3.17
-5.11
-6.94
-8.37
-9.37
-10.27
-11.76
-14.36
-18.25
-22.96
-27.42
-30.31
-30.58
-27.77
-22.22
-14.82
-6.66
1.22
8.16
13.82
18.11
20.94
22.23
21.93
20.07
16.91
12.89
8.57
4.51
1.13
-1.47
-3.28
-4.50
-5.32
-5.94
-6.50
-7.06
-7.65
-8.34
-9.18
-10.13
-11.20
-12.39
-13.65
-14.97
-16.28
-17.51
-18.60
-19.48
-20.17
-20.85
-21.68
-22.91
-24.70
-26.97
-29.40
-31.44
-32.40
-31.71
-29.06
-24.47
-18.31
-11.18
-3.73
3.45
9.80
14.98
18.75
21.02
21.91
21.65
20.65
19.45
18.64
18.74
20.05
22.50
25.74
29.13
31.95
33.64
33.87
32.61
30.10
26.74
22.96
19.16
15.57
12.22
8.98
5.45
1.25
-3.91
-10.21
-17.55
-25.62
-33.92
-41.78
-48.47
-53.32
-55.80
-55.64
-52.91
-47.90
-41.04
-32.85
-23.88
-14.79
-6.33
0.79
6.00
8.99
9.94
9.39
8.12
6.94
6.42
6.73
7.76
9.16
10.52
11.61
12.37
12.83
13.05
12.93
12.22
10.65
8.06
4.61
0.54
-3.71
-7.83
-11.66
-15.09
-18.17
-20.85
-23.13
-25.15
-27.23
-29.83
-33.28
-37.61
-42.39
-46.80
-49.78
-50.46
-48.33
-43.42
-36.31
-27.83
-18.83
-9.91
-1.37
6.55
13.68
19.74
24.45
27.76
29.95
31.61
33.47
35.68
37.98
39.70
40.33
40.04
39.55
39.88
41.55
44.23
46.74
47.84
46.84
43.91
39.79
34.99
29.46
22.33
12.88
1.22
-11.31
-22.50
-30.31
-33.92
-34.01
-32.61
-31.82
-32.67
-34.72
-36.22
-35.12
-30.29
-21.96
-11.97
-2.57
4.64
9.43
12.99
17.03
22.63
29.44
35.65
38.99
37.94
32.62
24.83
17.04
11.28
8.39
7.71
7.95
8.08
7.93
8.21
9.88
13.38
18.32
23.43
27.30
29.00
28.37
25.99
22.71
19.17
15.62
11.84
7.36
1.85
-4.66
-11.72
-18.51
-24.16
-27.86
-29.26
-28.35
-25.55
-21.47
-16.69
-11.62
-6.47
-1.35
3.67
8.34
12.37
15.51
17.59
18.67
19.03
19.05
19.07
19.28
19.59
19.75
19.52
18.79
17.69
16.47
15.32
14.35
13.35
11.97
9.91
7.07
3.62
-0.12
-3.88
-7.56
-11.34
-15.55
-20.51
-26.39
-33.05
-40.11
-46.97
-53.03
-57.75
-60.72
-61.70
-60.59
-57.44
-52.46
-46.04
-38.69
-31.07
-23.85
-17.56
-12.47
-8.46
-5.02
-1.53
2.55
7.45
12.99
18.64
23.73
27.63
29.89
30.32
29.03
26.30
22.67
18.82
15.34
12.60
10.60
8.99
7.31
5.20
2.60
-0.21
-2.77
-4.65
-5.74
-6.29
-6.93
-8.34
-11.08
-15.27
-20.49
-25.84
-30.23
-32.72
-32.79
-30.52
-26.41
-21.09
-15.15
-8.93
-2.65
3.45
9.07
13.81
17.38
19.68
20.92
21.42
21.55
21.56
21.52
21.44
21.37
21.52
22.14
23.51
25.63
28.26
30.74
32.33
32.38
30.55
26.87
21.72
15.77
9.69
4.09
-0.63
-4.38
-7.31
-9.76
-12.04
-14.22
-16.05
-17.04
-16.65
-14.57
-10.87
-5.98
-0.47
5.11
10.38
15.18
19.41
22.97
25.63
27.28
27.90
27.62
26.78
25.75
24.73
23.80
22.85
21.77
20.61
19.52
18.69
18.21
17.85
17.25
15.98
13.79
10.67
6.93
2.99
-0.80
-4.23
-7.31
-10.16
-12.90
-15.64
-18.47
-21.57
-25.13
-29.28
-33.91
-38.63
-42.80
-45.63
-46.48
-44.97
-41.09
-35.23
-28.05
-20.29
-12.71
-5.92
-0.24
4.06
6.99
8.57
8.94
8.28
7.04
5.74
4.98
5.22
6.48
8.39
10.28
11.43
11.45
10.39
8.69
6.93
5.48
4.36
3.26
1.77
-0.35
-2.99
-5.80
-8.42
-10.60
-12.42
-14.20
-16.25
-18.86
-22.03
-25.51
-28.82
-31.33
-32.45
-31.76
-29.11
-24.62
-18.73
-11.95
-4.84
2.15
8.69
14.46
19.18
22.63
24.74
25.65
25.72
25.35
24.83
24.21
23.39
22.16
20.54
18.86
17.59
17.15
17.63
18.70
19.78
20.18
19.45
17.57
14.76
11.41
7.86
4.18
0.42
-3.41
-7.14
-10.40
-12.78
-14.19
-14.93
-15.63
-17.10
-19.88
-23.91
-28.48
-32.51
-34.84
-34.83
-32.48
-28.21
-22.79
-16.90
-11.00
-5.26
0.20
5.25
9.61
12.99
15.15
15.97
15.70
14.72
13.54
12.61
12.07
11.97
12.19
12.56
12.89
13.07
12.95
12.31
10.96
8.82
5.91
2.47
-1.19
-4.79
-8.14
-11.18
-13.92
-16.38
-18.56
-20.42
-22.08
-23.78
-25.81
-28.42
-31.59
-34.93
-37.83
-39.50
-39.21
-36.57
-31.59
-24.68
-16.62
-8.38
-0.81
5.45
10.08
13.08
14.66
15.06
14.63
13.72
12.60
11.60
10.86
10.39
10.09
9.81
9.44
9.01
8.66
8.60
8.91
9.51
10.10
10.26
9.56
7.71
4.71
0.86
-3.25
-6.91
-9.61
-11.17
-11.80
-12.02
-12.32
-13.01
-13.91
-14.58
-14.32
-12.61
-9.15
-4.06
2.27
9.22
16.10
22.30
27.28
30.77
32.72
33.34
32.95
31.90
30.46
28.76
26.89
24.86
22.87
21.11
19.78
18.90
18.42
18.13
17.75
17.03
15.89
14.30
12.39
10.24
7.93
5.50
2.95
0.22
-2.75
-6.03
-9.67
-13.68
-18.03
-22.51
-26.68
-29.99
-31.85
-31.82
-29.75
-25.80
-20.38
-14.18
-7.87
-2.04
2.86
6.64
9.38
11.39
13.00
14.54
16.09
17.41
18.15
18.01
17.01
15.48
13.84
12.55
11.83
11.68
11.89
12.24
12.48
12.27
11.20
8.73
4.61
-1.01
-7.46
-13.74
-18.89
-22.55
-25.03
-27.17
-29.93
-33.72
-38.19
-42.28
-44.71
-44.45
-41.34
-35.88
-28.96
-21.53
-14.19
-7.24
-0.89
4.52
8.22
9.45
7.80
3.64
-1.94
-7.41
-11.56
-14.00
-15.37
-16.87
-19.54
-23.55
-28.15
-32.12
-34.54
-35.50
-36.24
-38.37
-43.07
-50.33
-58.88
-66.87
-72.88
-76.59
-79.19
-82.78
-89.59
-101.28
-118.58
-141.20
-168.07
-197.48
-227.33
-255.28
-278.99
-296.47
-306.36
-308.16
-302.13
-289.02
-269.80
-245.42
-216.96
-185.87
-154.09
-123.81
-96.79
-73.86
-54.66
-37.89
-22.06
-6.25
9.59
24.86
38.79
51.08
62.06
72.64
84.04
97.58
114.41
135.32
160.22
187.85
216.00
242.11
264.27
281.83
295.18
304.90
310.88
312.07
306.65
293.00
270.67
240.59
205.13
167.96
134.17
109.83
100.76
110.77
140.02
184.40
236.75
289.18
335.50
372.39
399.33
417.28
427.42
430.79
428.33
421.32
411.42
400.07
388.06
375.32
361.21
345.03
326.39
305.12
281.18
254.72
226.15
196.01
165.17
134.59
104.96
76.59
49.23
22.34
-4.42
-30.80
-55.67
-77.20
-93.66
-104.29
-109.70
-111.94
-113.69
-117.11
-123.40
-132.74
-145.25
-161.38
-181.41
-204.04
-225.24
-238.77
-238.41
-221.61
-191.61
-157.09
-128.99
-116.23
-122.51
-146.17
-182.65
-227.68
-278.86
-334.49
-390.91
-440.57
-473.14
-479.63
-457.64
-413.94
-362.61
-319.44
-294.76
-289.48
-296.07
-303.81
-305.15
-298.90
-288.98
-279.77
-271.81
-260.51
-238.92
-202.20
-150.55
-89.19
-25.45
34.69
88.26
134.31
172.02
199.49
213.94
213.30
197.46
168.30
128.43
80.28
26.06
-30.94
-85.46
-130.57
-159.76
-169.87
-162.92
-145.72
-127.22
-115.08
-113.33
-121.92
-138.05
-157.98
-178.34
-196.25
-209.14
-214.56
-210.61
-196.49
-173.17
-143.19
-110.04
-77.19
-47.44
-22.46
-2.97
10.84
18.78
20.53
15.74
4.75
-10.70
-27.12
-39.79
-44.07
-37.06
-18.73
8.24
39.67
71.68
102.23
131.44
160.85
192.02
225.08
258.20
287.88
310.11
321.78
321.87
311.83
294.85
274.69
254.00
233.73
213.10
190.66
165.32
137.20
107.85
80.10
57.45
43.24
39.79
47.40
63.71
83.97
102.33
113.67
115.23
107.53
93.82
78.62
66.22
59.53
59.62
65.74
75.55
85.84
93.33
95.88
93.38
87.85
82.50
80.29
82.43
88.10
95.05
100.98
104.56
105.66
104.51
100.93
94.07
83.02
67.76
49.60
30.76
13.17
-2.48
-16.82
-31.04
-45.59
-59.41
-70.23
-75.78
-75.03
-68.85
-59.68
-50.49
-43.70
-40.76
-42.21
-48.20
-58.47
-72.31
-88.04
-103.17
-114.78
-120.65
-120.00
-113.67
-103.72
-92.30
-81.02
-70.65
-61.53
-54.07
-49.12
-47.69
-50.19
-55.88
-62.80
-68.40
-70.78
-69.70
-66.97
-65.68
-68.90
-78.02
-91.81
-106.45
-116.35
-115.95
-101.60
-73.10
-34.06
8.80
47.72
76.29
91.68
95.33
92.16
88.43
89.30
97.18
111.37
129.19
147.52
164.16
178.31
189.95
199.04
204.57
204.50
196.11
177.08
146.35
104.78
55.48
3.59
-44.20
-80.78
-100.33
-100.10
-81.40
-49.32
-11.10
26.53
59.29
85.86
106.91
122.98
133.15
134.82
125.11
102.66
68.95
28.17
-14.03
-52.41
-83.66
-107.22
-124.86
-139.69
-154.60
-170.99
-188.21
-203.85
-214.65
-217.78
-211.88
-197.49
-176.93
-153.57
-130.89
-111.64
-97.24
-87.52
-80.89
-74.78
-66.37
-53.45
-35.04
-11.87
13.78
38.43
58.08
69.36
70.39
61.52
45.44
26.57
9.80
-0.98
-4.01
-0.16
7.64
15.75
21.03
21.98
18.94
13.65
8.40
5.09
4.49
6.04
8.14
8.75
6.24
-0.06
-9.40
-19.74
-28.37
-32.72
-31.24
-23.92
-12.22
1.56
14.94
26.14
34.48
40.32
44.70
48.73
53.09
57.72
61.90
64.55
64.60
61.43
54.99
45.83
34.89
23.29
12.03
1.94
-6.42
-12.75
-16.96
-19.35
-20.43
-20.93
-21.52
-22.61
-24.36
-26.63
-29.25
-32.00
-34.82
-37.64
-40.28
-42.36
-43.26
-42.37
-39.23
-33.82
-26.54
-18.07
-9.24
-0.72
6.97
13.50
18.54
21.69
22.57
21.06
17.49
12.62
7.45
2.89
-0.51
-2.84
-4.44
-5.79
-7.14
-8.34
-9.04
-8.93
-8.11
-7.15
-6.89
-8.04
-10.83
-14.79
-18.83
-21.60
-21.80
-18.38
-10.56
2.18
19.73
40.98
63.62
84.27
99.29
105.57
101.45
86.95
63.61
33.84
0.46
-33.76
-66.08
-94.02
-115.64
-129.63
-135.47
-133.19
-122.96
-104.97
-79.90
-49.40
-16.52
14.51
39.45
55.35
61.55
59.83
53.45
45.71
38.77
33.32
28.81
24.45
19.73
14.69
9.62
4.52
-1.13
-8.06
-16.78
-27.07
-37.79
-47.32
-54.19
-57.70
-58.44
-58.16
-59.15
-63.60
-72.98
-87.81
-107.77
-132.12
-159.84
-189.86
-220.69
-250.15
-275.22
-292.40
-298.62
-292.35
-274.38
-247.65
-216.36
-184.55
-155.05
-129.01
-106.38
-86.54
-69.00
-53.31
-38.73
-23.73
-6.13
16.29
44.87
79.31
117.65
156.78
193.40
225.30
252.05
275.13
297.42
321.70
349.16
378.06
403.37
417.76
413.62
385.86
334.42
265.13
188.97
119.38
68.93
46.11
53.09
85.21
132.30
181.50
220.63
241.41
241.11
222.39
191.34
154.76
118.07
84.40
54.99
30.07
9.60
-6.63
-19.14
-28.86
-36.71
-43.23
-48.41
-52.26
-55.21
-58.18
-62.31
-68.07
-74.35
-78.47
-76.84
-66.47
-46.33
-18.00
14.87
47.59
75.83
96.90
109.94
115.67
115.36
109.78
99.22
83.94
64.70
43.05
21.44
2.48
-11.39
-18.61
-19.44
-14.90
-6.05
5.67
18.27
29.26
35.77
36.03
29.46
15.82
-3.06
-23.45
-41.77
-55.99
-66.15
-74.18
-81.78
-90.79
-105.00
-126.99
-156.57
-191.20
-225.87
-253.46
-266.55
-258.53
-227.09
-177.88
-119.72
-60.42
-5.63
42.62
85.86
117.65
131.70
138.67
141.39
131.83
106.86
68.20
21.82
-24.81
-66.34
-100.64
-129.33
-157.91
-188.93
-219.47
-244.97
-263.43
-278.43
-298.71
-332.86
-384.44
-450.78
-520.99
-579.56
-614.31
-621.15
-604.61
-574.49
-539.97
-506.16
-474.57
-442.85
-407.05
-364.66
-315.62
-261.26
-202.98
-141.01
-74.75
-4.66
67.64
139.48
207.11
266.96
316.87
356.66
388.02
413.74
436.11
456.43
474.91
490.79
503.21
512.32
519.90
528.98
542.46
561.43
583.64
603.57
613.77
607.21
579.54
530.19
462.38
382.24
297.93
218.47
152.67
107.39
85.80
86.23
102.32
125.33
147.07
162.53
170.53
172.54
170.63
165.78
157.47
144.21
124.51
97.29
61.95
18.42
-32.30
-87.37
-141.77
-189.06
-223.51
-242.30
-247.38
-244.97
-243.12
-248.35
-262.65
-282.49
-300.23
-307.68
-299.28
-274.36
-236.65
-191.98
-145.67
-100.89
-58.80
-19.80
15.03
43.89
65.21
79.01
87.52
94.45
103.31
115.76
130.87
145.64
156.44
160.53
156.98
146.83
132.26
115.88
99.85
85.66
74.41
67.12
64.83
68.27
77.30
90.42
105.10
118.35
127.46
130.26
125.09
110.95
88.15
59.35
29.98
7.40
-1.46
6.86
30.32
61.57
90.48
107.93
109.15
94.94
70.68
43.44
19.11
0.59
-12.36
-22.07
-31.30
-42.03
-54.88
-69.52
-85.30
-101.69
-118.63
-136.20
-154.33
-172.40
-189.13
-202.82
-212.00
-216.25
-216.60
-215.51
-215.82
-219.48
-226.58
-235.36
-243.27
-248.41
-250.68
-251.80
-254.61
-261.80
-274.79
-293.01
-313.66
-332.11
-343.13
-342.81
-330.30
-308.74
-283.91
-261.66
-244.97
-232.27
-218.29
-196.78
-163.90
-120.23
-70.52
-21.49
20.93
53.68
77.00
93.67
107.44
121.73
138.47
157.43
176.13
190.13
194.11
183.34
155.49
112.17
59.74
8.44
-29.98
-45.96
-35.55
-2.43
43.14
87.77
120.11
134.90
134.54
127.39
123.49
129.84
147.22
169.78
187.32
189.49
169.78
128.45
72.85
15.40
-30.15
-52.90
-48.01
-17.89
29.04
81.34
128.14
162.15
180.69
185.23
179.57
167.97
153.56
137.96
121.80
105.44
89.68
75.83
65.75
61.18
63.04
70.53
80.68
88.44
87.73
73.17
41.41
-8.35
-75.23
-157.37
-251.92
-353.88
-454.39
-540.82
-599.59
-621.03
-603.98
-557.52
-498.12
-443.64
-406.59
-390.18
-388.52
-390.17
-383.60
-361.56
-322.88
-271.47
-213.33
-153.38
-93.45
-32.23
33.24
105.18
183.76
267.04
351.91
435.07
513.22
582.55
638.07
674.14
686.06
671.96
634.32
579.63
516.40
452.44
392.62
338.38
289.18
244.47
205.12
172.74
147.61
126.66
103.73
72.35
30.09
-18.14
-60.68
-83.99
-79.61
-49.49
-6.16
32.53
51.54
45.20
18.99
-14.35
-41.65
-55.53
-56.98
-53.37
-53.77
-64.16
-85.11
-112.34
-139.74
-162.50
-178.79
-189.58
-197.11
-203.32
-209.37
-216.35
-226.25
-242.00
-266.08
-298.19
-333.83
-364.69
-381.46
-377.43
-351.21
-307.10
-252.87
-196.71
-144.69
-100.01
-63.74
-36.22
-17.59
-7.49
-4.14
-3.81
-1.23
8.99
30.38
63.06
102.94
142.65
174.02
191.12
192.60
182.26
167.14
154.30
147.67
146.63
147.06
143.64
132.49
112.44
84.99
53.33
21.50
-5.95
-24.50
-30.68
-23.81
-7.21
11.96
24.93
24.87
9.93
-15.81
-44.43
-68.17
-82.95
-89.59
-92.02
-94.04
-96.58
-97.13
-91.21
-75.09
-48.06
-13.05
24.43
58.23
83.53
98.29
103.14
100.69
94.08
85.81
76.99
67.38
56.38
44.45
33.94
28.69
32.28
45.78
66.69
89.73
109.55
123.98
135.69
150.60
173.94
205.87
239.69
264.20
269.45
252.56
220.05
185.08
160.69
153.02
158.48
166.13
163.67
143.36
104.91
54.24
-0.20
-51.09
-94.07
-127.32
-150.40
-163.18
-165.98
-160.29
-149.14
-136.70
-127.02
-122.60
-123.64
-128.19
-132.94
-134.51
-130.30
-119.25
-101.86
-80.03
-56.54
-34.43
-16.29
-3.63
3.41
6.00
6.01
5.17
4.51
4.15
4.00
4.29
6.03
10.45
17.97
27.44
36.09
40.66
39.01
31.40
20.52
10.29
3.93
2.46
4.31
6.09
4.42
-2.73
-15.15
-30.73
-46.39
-59.26
-67.63
-71.24
-71.09
-68.76
-65.79
-63.18
-61.38
-60.55
-60.78
-62.35
-65.57
-70.50
-76.75
-83.45
-89.52
-94.14
-97.03
-98.63
-99.83
-101.75
-105.28
-110.78
-118.05
-125.99
-132.57
-135.01
-129.94
-113.80
-83.50
-37.44
23.27
94.18
167.52
233.83
284.30
313.39
320.06
307.58
281.59
247.91
211.08
173.88
138.10
105.13
76.21
51.76
30.59
9.52
-16.11
-50.61
-95.62
-148.28
-200.91
-242.75
-263.82
-258.73
-228.82
-181.71
-127.86
-76.37
-31.88
6.06
41.11
77.43
117.42
160.87
205.03
245.59
277.54
296.24
298.51
283.77
254.47
215.41
172.52
131.04
94.54
64.76
42.12
26.46
17.12
12.71
10.80
7.92
0.30
-14.96
-38.96
-70.40
-105.68
-140.09
-169.23
-190.42
-203.41
-210.04
-212.99
-214.29
-214.21
-211.18
-202.84
-187.50
-165.10
-137.14
-105.83
-73.12
-40.39
-8.76
20.06
43.62
59.33
65.74
63.71
56.54
48.82
44.57
45.65
51.27
58.74
65.10
68.47
68.77
67.47
66.50
67.39
70.56
75.45
80.91
85.90
89.90
93.10
96.14
99.81
104.61
110.57
117.06
123.03
127.14
128.05
124.91
117.53
106.56
93.40
79.75
67.17
56.44
47.23
38.19
27.44
13.38
-4.54
-25.44
-47.26
-67.54
-84.29
-96.57
-104.69
-109.70
-112.76
-114.53
-115.08
-114.14
-111.44
-107.07
-101.32
-94.47
-86.40
-76.63
-64.60
-50.09
-33.70
-16.81
-1.09
11.98
21.73
28.25
32.26
34.58
35.83
36.15
35.50
33.47
29.90
24.94
19.08
13.08
7.56
2.81
-1.53
-6.23
-12.50
-20.98
-31.41
-42.52
-52.44
-59.56
-63.20
-63.91
-62.90
-62.21
-63.05
-65.60
-69.16
-72.67
-75.53
-78.05
-81.45
-86.56
-95.27
-107.48
-121.69
-135.56
-146.71
-153.64
-155.85
-153.50
-145.06
-131.56
-111.71
-84.10
-47.92
-3.35
48.16
104.11
160.84
215.98
260.66
287.72
290.60
265.93
215.69
148.17
76.48
14.97
-21.92
-32.53
-18.42
14.53
59.86
113.54
175.00
245.60
304.60
374.17
444.19
506.33
553.50
582.32
593.59
590.71
576.90
553.11
520.84
474.00
411.44
335.60
252.48
169.78
94.10
28.92
-25.79
-69.76
-108.16
-142.47
-172.59
-197.31
-215.53
-227.23
-233.75
-237.55
-239.66
-243.75
-250.79
-260.99
-274.29
-290.84
-310.60
-332.71
-354.83
-372.46
-382.27
-381.32
-369.05
-347.39
-319.89
-290.14
-260.58
-232.29
-205.35
-180.54
-159.04
-142.29
-131.17
-125.26
-122.73
-121.16
-118.52
-113.99
-108.13
-102.27
-97.50
-93.85
-90.21
-84.93
-76.73
-65.47
-52.23
-38.78
-26.79
-17.11
-9.70
-3.98
0.86
5.41
9.94
14.40
18.50
21.69
23.46
23.56
22.21
20.09
18.09
16.80
16.57
17.59
20.30
25.35
32.98
42.19
50.32
53.69
49.44
37.55
21.68
8.02
2.59
8.37
23.92
44.45
64.43
80.35
91.94
101.36
111.22
122.81
135.41
147.20
156.65
163.46
168.47
172.83
176.92
180.06
180.83
177.88
170.77
160.19
147.73
135.26
124.31
115.58
108.99
103.88
99.38
94.96
90.40
85.82
81.31
76.79
71.78
65.59
57.51
47.07
34.30
19.62
3.75
-12.54
-28.59
-44.02
-58.66
-72.59
-85.96
-98.78
-110.80
-121.32
-129.37
-134.10
-135.14
-132.99
-129.02
-125.01
-122.67
-123.14
-126.75
-133.12
-141.43
-150.35
-158.24
-163.43
-164.62
-161.41
-154.58
-145.78
-136.78
-128.62
-120.85
-111.89
-99.64
-82.66
-60.94
-35.95
-10.32
12.93
31.08
42.47
46.69
44.71
38.51
30.35
22.12
14.75
8.30
2.46
-2.80
-7.02
-9.41
-9.43
-7.34
-4.22
-1.52
-0.25
-0.47
-1.28
-1.29
0.60
4.69
10.30
16.19
21.06
24.09
25.16
24.69
23.39
21.73
19.97
17.99
15.64
12.96
10.14
7.50
5.16
3.08
0.93
-1.60
-4.69
-8.26
-12.05
-15.68
-18.83
-21.30
-23.02
-24.10
-24.70
-25.14
-25.69
-26.55
-27.76
-29.26
-30.89
-32.41
-33.57
-34.07
-33.69
-32.26
-29.71
-26.13
-21.76
-16.92
-11.93
-7.18
-2.93
0.54
3.08
4.66
5.37
5.41
5.00
4.39
3.78
3.31
3.05
3.03
3.28
3.71
4.28
4.86
5.32
5.55
5.43
4.91
4.01
2.82
1.40
-0.13
-1.69
-3.20
-4.62
-5.92
-7.14
-8.40
-9.82
-11.54
-13.59
-15.82
-17.94
-19.57
-20.31
-19.91
-18.26
-15.46
-11.71
-7.17
-1.96
3.77
9.85
15.91
21.54
26.29
29.83
32.13
33.34
33.69
33.29
32.18
30.24
27.44
23.93
20.05
16.19
12.65
9.52
6.77
4.25
1.94
-0.10
-1.81
-3.13
-4.12
-4.95
-5.81
-6.83
-8.07
-9.56
-11.36
-13.48
-15.89
-18.41
-20.80
-22.67
-23.58
-23.23
-21.52
-18.56
-14.73
-10.51
-6.42
-2.77
0.31
2.94
5.35
7.67
9.92
11.92
13.50
14.49
14.86
14.70
14.18
13.52
12.93
12.53
12.37
12.42
12.50
12.37
11.77
10.50
8.52
5.93
2.97
-0.08
-2.91
-5.31
-7.11
-8.32
-9.03
-9.49
-9.98
-10.71
-11.73
-12.83
-13.59
-13.52
-12.28
-9.88
-6.51
-2.62
1.39
5.24
8.77
11.94
14.66
16.80
18.17
18.69
18.38
17.41
16.04
14.48
12.96
11.65
10.60
9.88
9.47
9.28
9.18
9.01
8.61
7.91
6.92
5.70
4.35
2.89
1.35
-0.27
-1.97
-3.66
-5.37
-7.12
-9.05
-11.22
-13.54
-15.71
-17.28
-17.70
-16.70
-14.29
-10.85
-6.97
-3.22
0.04
2.69
4.76
6.40
7.64
8.51
9.02
9.20
9.24
9.35
9.74
10.45
11.46
12.58
13.54
14.24
14.59
14.58
14.26
13.64
12.73
11.53
10.01
8.12
5.85
3.22
0.25
-2.97
-6.24
-9.46
-12.53
-15.47
-18.36
-21.16
-23.75
-25.71
-26.63
-26.03
-23.71
-19.74
-14.51
-8.57
-2.43
3.48
8.86
13.54
17.45
20.56
22.89
24.51
25.46
25.82
25.63
24.94
23.91
22.69
21.47
20.33
19.33
18.42
17.59
16.83
16.13
15.46
14.75
13.85
12.66
11.15
9.33
7.25
4.90
2.27
-0.52
-3.36
-6.04
-8.44
-10.55
-12.59
-14.82
-17.46
-20.51
-23.68
-26.43
-28.18
-28.45
-26.99
-23.90
-19.42
-13.96
-7.94
-1.76
4.22
9.72
14.46
18.28
21.07
22.83
23.61
23.51
22.69
21.26
19.39
17.26
15.07
13.00
11.21
9.82
8.92
8.52
8.51
8.76
9.09
9.36
9.47
9.33
8.94
8.29
7.36
6.12
4.53
2.66
0.57
-1.68
-4.10
-6.70
-9.54
-12.67
-16.06
-19.61
-23.09
-26.19
-28.53
-29.78
-29.63
-28.01
-25.04
-20.98
-16.25
-11.27
-6.48
-2.19
1.33
4.02
5.98
7.41
8.64
9.84
11.06
12.23
13.20
13.87
14.26
14.39
14.29
13.99
13.41
12.54
11.44
10.18
8.87
7.57
6.25
4.77
3.07
1.11
-1.05
-3.21
-5.21
-6.92
-8.28
-9.39
-10.40
-11.43
-12.58
-13.90
-15.37
-17.00
-18.78
-20.62
-22.33
-23.61
-24.05
-23.37
-21.42
-18.28
-14.25
-9.73
-5.09
-0.60
3.59
7.36
10.59
13.10
14.81
15.68
15.78
15.27
14.28
13.01
11.62
10.23
8.95
7.85
6.93
6.04
5.13
4.13
3.21
2.57
2.38
2.65
3.21
3.82
4.17
4.17
3.74
2.97
1.99
0.82
-0.49
-2.00
-3.74
-5.72
-7.92
-10.31
-12.85
-15.44
-17.93
-20.05
-21.48
-21.92
-21.08
-18.93
-15.61
-11.57
-7.22
-3.06
0.60
3.56
5.75
7.20
7.99
8.24
8.13
7.86
7.58
7.33
7.11
6.84
6.45
5.97
5.46
5.05
4.82
4.81
5.00
5.27
5.48
5.44
5.05
4.24
3.09
1.74
0.29
-1.11
-2.41
-3.62
-4.78
-5.93
-7.15
-8.49
-9.89
-11.30
-12.51
-13.31
-13.51
-12.99
-11.81
-10.15
-8.18
-5.99
-3.65
-1.15
1.34
3.63
5.49
6.76
7.47
7.74
7.79
7.76
7.74
7.70
7.57
7.42
7.29
7.26
7.42
7.77
8.24
8.75
9.15
9.26
8.97
8.20
6.95
5.34
3.45
1.39
-0.72
-2.80
-4.77
-6.66
-8.53
-10.50
-12.66
-14.97
-17.21
-18.95
-19.74
-19.26
-17.46
-14.59
-11.11
-7.48
-4.04
-0.96
1.74
4.08
6.02
7.49
8.50
9.08
9.39
9.57
9.74
9.95
10.07
10.00
9.64
8.99
8.11
7.10
6.06
5.03
4.06
3.10
2.10
1.00
-0.23
-1.58
-2.98
-4.33
-5.57
-6.66
-7.68
-8.78
-10.11
-11.75
-13.73
-15.86
-17.83
-19.23
-19.69
-18.93
-16.92
-13.86
-10.17
-6.24
-2.39
1.20
4.49
7.42
9.90
11.75
12.81
13.07
12.72
12.06
11.41
10.94
10.62
10.39
10.16
9.85
9.48
9.08
8.68
8.27
7.79
7.21
6.54
5.73
4.73
3.45
1.81
-0.16
-2.36
-4.60
-6.70
-8.59
-10.37
-12.22
-14.25
-16.41
-18.51
-20.18
-21.04
-20.85
-19.53
-17.18
-14.00
-10.27
-6.28
-2.38
1.24
4.37
6.95
8.91
10.21
10.79
10.57
9.60
8.07
6.37
4.91
4.01
3.74
3.96
4.43
4.88
5.19
5.35
5.44
5.49
5.44
5.25
4.86
4.30
3.66
3.05
2.46
1.81
0.98
-0.13
-1.58
-3.38
-5.46
-7.83
-10.43
-13.21
-15.96
-18.33
-19.93
-20.37
-19.45
-17.17
-13.79
-9.67
-5.26
-0.95
3.00
6.37
9.02
10.81
11.69
11.70
10.96
9.68
8.07
6.36
4.69
3.17
1.88
0.85
0.11
-0.37
-0.61
-0.71
-0.78
-0.88
-1.10
-1.46
-1.94
-2.45
-2.94
-3.37
-3.77
-4.19
-4.71
-5.39
-6.28
-7.41
-8.76
-10.21
-11.51
-12.36
-12.46
-11.61
-9.79
-7.22
-4.26
-1.31
1.32
3.47
5.11
6.27
6.97
7.22
6.99
6.35
5.42
4.44
3.64
3.17
3.09
3.30
3.69
4.14
4.63
5.22
5.94
6.71
7.27
7.37
6.81
5.61
3.97
2.25
0.78
-0.36
-1.24
-2.14
-3.28
-4.78
-6.56
-8.39
-9.98
-11.07
-11.50
-11.18
-10.11
-8.37
-6.11
-3.56
-0.97
1.41
3.39
4.90
5.99
6.74
7.26
7.63
7.89
8.10
8.31
8.54
8.80
9.06
9.28
9.38
9.37
9.23
8.96
8.55
7.89
6.86
5.39
3.51
1.36
-0.82
-2.80
-4.49
-5.91
-7.23
-8.74
-10.59
-12.89
-15.51
-18.18
-20.43
-21.79
-21.91
-20.63
-18.16
-14.89
-11.34
-7.91
-4.79
-2.01
0.51
2.89
5.16
7.26
9.10
10.54
11.49
11.91
11.80
11.22
10.27
9.08
7.76
6.45
5.18
3.99
2.92
1.92
0.88
-0.48
-2.43
-5.20
-8.80
-13.01
-17.40
-21.49
-24.96
-27.77
-30.24
-32.94
-36.46
-41.13
-46.92
-53.27
-59.33
-64.10
-66.78
-67.05
-65.03
-61.18
-56.06
-50.18
-43.81
-37.03
-29.85
-22.29
-14.60
-7.29
-1.11
3.13
4.84
3.96
1.16
-2.09
-3.64
-1.10
7.56
23.31
45.54
71.74
98.17
120.85
136.83
145.14
146.65
143.34
136.96
128.29
117.09
102.94
86.09
67.88
50.46
35.85
25.13
18.06
13.53
10.08
6.74
3.28
0.04
-2.41
-3.73
-3.93
-3.40
-2.64
-2.06
-1.77
-1.61
-1.36
-0.90
-0.39
-0.15
-0.55
-1.72
-3.41
-4.93
-5.55
-4.77
-2.56
0.55
3.77
6.40
8.15
9.12
9.72
10.29
10.90
11.39
11.52
11.13
10.32
9.31
8.21
6.93
5.29
3.03
0.11
-3.37
-7.20
-11.13
-14.89
-18.20
-20.74
-22.16
-22.23
-20.93
-18.55
-15.65
-12.85
-10.79
-9.87
-10.29
-12.08
-15.15
-19.27
-24.13
-29.32
-34.29
-38.52
-41.53
-43.11
-43.33
-42.66
-41.63
-40.63
-39.85
-39.08
-37.97
-36.20
-33.62
-30.37
-26.85
-23.50
-20.68
-18.61
-17.21
-16.35
-15.78
-15.30
-14.77
-14.13
-13.43
-12.77
-12.29
-12.08
-12.14
-12.42
-12.63
-12.47
-11.53
-9.56
-6.49
-2.60
1.71
6.04
9.95
13.30
16.06
18.33
20.18
21.60
22.50
22.84
22.67
22.07
21.25
20.37
19.48
18.57
17.58
16.45
15.19
13.90
12.62
11.42
10.21
8.88
7.34
5.55
3.53
1.36
-0.81
-2.91
-4.88
-6.71
-8.43
-10.00
-11.40
-12.60
-13.68
-14.73
-15.91
-17.27
-18.76
-20.16
-21.09
-21.23
-20.32
-18.37
-15.49
-11.96
-8.04
-3.94
0.19
4.28
8.21
11.84
14.95
17.35
18.90
19.61
19.61
19.06
18.20
17.21
16.27
15.50
14.97
14.69
14.59
14.60
14.50
14.18
13.51
12.49
11.12
9.50
7.71
5.83
3.99
2.21
0.54
-0.98
-2.37
-3.62
-4.71
-5.67
-6.55
-7.52
-8.77
-10.43
-12.47
-14.63
-16.48
-17.50
-17.38
-16.00
-13.50
-10.18
-6.39
-2.40
1.63
5.58
9.32
12.74
15.67
17.94
19.42
20.09
19.94
19.13
17.87
16.34
14.71
13.07
11.43
9.84
8.36
7.06
6.02
5.21
4.56
3.97
3.34
2.69
1.99
1.25
0.41
-0.59
-1.79
-3.10
-4.37
-5.55
-6.63
-7.73
-9.05
-10.63
-12.39
-14.16
-15.73
-16.91
-17.69
-18.00
-17.78
-16.86
-15.06
-12.36
-8.85
-4.92
-0.96
2.59
5.48
7.64
9.09
10.04
10.57
10.75
10.56
10.02
9.24
8.51
8.08
8.12
8.62
9.30
9.87
10.11
9.90
9.27
8.31
7.08
5.62
3.99
2.22
0.47
-1.19
-2.68
-4.06
-5.43
-6.90
-8.59
-10.53
-12.65
-14.73
-16.39
-17.22
-16.87
-15.20
-12.30
-8.52
-4.35
-0.24
3.63
7.22
10.58
13.67
16.29
18.12
18.89
18.54
17.35
15.80
14.38
13.34
12.66
12.09
11.40
10.48
9.43
8.42
7.60
6.92
6.17
5.12
3.71
2.09
0.54
-0.63
-1.35
-1.73
-2.09
-2.78
-4.03
-5.94
-8.47
-11.60
-15.19
-19.07
-22.89
-26.12
-28.19
-28.68
-27.50
-24.92
-21.47
-17.63
-13.79
-10.16
-6.76
-3.59
-0.70
1.78
3.72
5.01
5.62
5.63
5.14
4.38
3.50
2.61
1.65
0.53
-0.81
-2.27
-3.57
-4.30
-4.14
-3.13
-1.62
-0.12
0.92
1.45
1.76
2.26
3.27
4.70
6.18
7.19
7.42
6.83
5.61
3.95
2.00
-0.27
-2.76
-5.25
-7.32
-8.49
-8.48
-7.24
-5.04
-2.26
0.67
3.45
5.85
7.71
8.92
9.44
9.31
8.69
7.86
7.05
6.45
6.09
5.88
5.69
5.45
5.17
5.02
5.19
5.78
6.72
7.82
8.74
9.28
9.30
8.88
8.12
7.09
5.85
4.35
2.58
0.58
-1.50
-3.57
-5.61
-7.72
-10.02
-12.55
-15.11
-17.32
-18.67
-18.77
-17.52
-15.11
-11.95
-8.52
-5.24
-2.48
-0.41
0.82
1.22
0.84
-0.14
-1.44
-2.77
-3.79
-4.31
-4.20
-3.46
-2.17
-0.45
1.53
3.62
5.66
7.56
9.15
10.35
11.10
11.36
11.18
10.62
9.70
8.42
6.83
4.97
2.93
0.83
-1.25
-3.34
-5.46
-7.62
-9.78
-11.72
-13.20
-13.94
-13.73
-12.52
-10.44
-7.69
-4.58
-1.36
1.78
4.67
7.20
9.27
10.77
11.69
12.09
12.04
11.70
11.17
10.48
9.59
8.48
7.12
5.57
3.95
2.44
1.18
0.23
-0.46
-1.04
-1.61
-2.31
-3.10
-3.88
-4.49
-4.85
-4.99
-5.05
-5.25
-5.73
-6.58
-7.75
-9.15
-10.61
-11.88
-12.69
-12.76
-11.84
-9.91
-7.14
-3.90
-0.58
2.50
5.15
7.37
9.16
10.55
11.57
12.24
12.62
12.81
12.87
12.82
12.64
12.30
11.85
11.30
10.74
10.18
9.61
8.96
8.18
7.26
6.23
5.13
3.90
2.46
0.71
-1.40
-3.81
-6.37
-8.81
-11.03
-12.90
-14.49
-15.93
-17.30
-18.62
-19.82
-20.74
-21.16
-20.89
-19.78
-17.79
-14.94
-11.35
-7.28
-3.05
0.97
4.46
7.17
9.05
10.14
10.59
10.62
10.44
10.27
10.23
10.42
10.82
11.39
12.02
12.63
13.19
13.70
14.21
14.71
15.14
15.42
15.39
14.96
14.01
12.53
10.55
8.18
5.57
2.90
0.37
-1.92
-3.89
-5.59
-7.13
-8.69
-10.47
-12.63
-15.19
-18.00
-20.72
-22.88
-24.04
-23.94
-22.54
-20.09
-16.95
-13.44
-9.81
-6.23
-2.74
0.53
3.44
5.82
7.57
8.71
9.34
9.66
9.82
9.91
10.01
10.14
10.35
10.66
11.09
11.66
12.31
12.91
13.37
13.54
13.26
12.45
11.16
9.53
7.78
6.08
4.54
3.21
2.01
0.87
-0.28
-1.46
-2.70
-4.04
-5.60
-7.48
-9.65
-11.97
-14.14
-15.73
-16.31
-15.58
-13.48
-10.17
-6.02
-1.49
2.97
7.01
10.43
13.13
15.03
16.09
16.35
15.89
14.85
13.45
11.96
10.58
9.49
8.69
8.12
7.65
7.17
6.62
6.07
5.61
5.30
5.10
4.91
4.55
3.87
2.95
1.89
0.82
-0.15
-1.10
-2.16
-3.44
-4.94
-6.60
-8.31
-10.04
-11.86
-13.86
-16.06
-18.30
-20.25
-21.49
-21.66
-20.58
-18.23
-14.80
-10.61
-6.05
-1.46
2.82
6.57
9.70
12.16
14.01
15.30
16.12
16.48
16.45
16.08
15.39
14.43
13.22
11.83
10.41
9.13
8.14
7.53
7.23
7.11
7.05
6.95
6.76
6.45
5.98
5.25
4.19
2.73
0.90
-1.18
-3.38
-5.61
-7.78
-9.85
-11.77
-13.50
-15.05
-16.49
-17.93
-19.44
-21.00
-22.39
-23.24
-23.14
-21.76
-19.01
-15.09
-10.42
-5.48
-0.78
3.32
6.63
9.09
10.75
11.75
12.27
12.46
12.45
12.29
11.98
11.55
11.02
10.48
10.07
9.84
9.76
9.72
9.58
9.24
8.73
8.09
7.42
6.78
6.16
5.51
4.77
3.90
2.93
1.94
0.91
-0.15
-1.24
-2.43
-3.77
-5.24
-6.84
-8.60
-10.59
-12.84
-15.29
-17.79
-20.06
-21.73
-22.47
-22.08
-20.53
-17.94
-14.53
-10.57
-6.33
-2.10
1.89
5.45
8.46
10.84
12.60
13.76
14.39
14.55
14.32
13.81
13.08
12.24
11.38
10.62
10.06
9.74
9.65
9.66
9.62
9.38
8.86
8.06
7.00
5.68
4.10
2.21
0.00
-2.43
-4.90
-7.18
-9.12
-10.66
-11.98
-13.27
-14.75
-16.46
-18.31
-20.14
-21.76
-23.05
-23.99
-24.51
-24.46
-23.57
-21.62
-18.53
-14.50
-9.89
-5.19
-0.82
3.04
6.25
8.80
10.65
11.76
12.18
12.06
11.65
11.15
10.71
10.35
10.01
9.58
9.03
8.37
7.65
6.94
6.31
5.83
5.54
5.43
5.43
5.44
5.29
4.87
4.08
2.93
1.46
-0.26
-2.17
-4.21
-6.40
-8.66
-10.93
-13.05
-14.78
-15.86
-16.08
-15.30
-13.49
-10.76
-7.32
-3.53
0.26
3.78
6.81
9.22
10.93
11.93
12.24
11.93
11.15
10.08
8.93
7.86
6.96
6.22
5.60
5.08
4.65
4.33
4.17
4.23
4.44
4.73
4.96
4.95
4.59
3.79
2.61
1.16
-0.41
-2.05
-3.79
-5.74
-8.10
-10.97
-14.32
-17.87
-21.12
-23.47
-24.42
-23.65
-21.16
-17.28
-12.51
-7.37
-2.25
2.54
6.80
10.37
13.13
14.99
15.93
16.11
15.74
15.07
14.27
13.33
12.24
10.98
9.58
8.17
6.91
5.96
5.36
5.17
5.26
5.53
5.77
5.77
5.31
4.27
2.63
0.53
-1.79
-4.06
-6.10
-7.87
-9.44
-10.98
-12.66
-14.60
-16.79
-19.09
-21.21
-22.81
-23.52
-23.01
-21.11
-17.86
-13.52
-8.51
-3.29
1.76
6.44
10.67
14.44
17.73
20.48
22.53
23.75
24.08
23.49
22.13
20.21
17.98
15.66
13.43
11.38
9.66
8.34
7.52
7.25
7.48
8.06
8.71
9.20
9.28
8.80
7.74
6.11
3.97
1.41
-1.36
-4.16
-6.81
-9.20
-11.33
-13.26
-15.14
-17.08
-19.19
-21.49
-23.87
-26.06
-27.68
-28.30
-27.56
