1580332783.00
64.000000
-0.00
-0.00
-0.00
-0.00
-0.00
-0.00
-0.00
-0.00
-0.00
-0.00
0.00
0.01
0.01
-0.00
-0.03
-0.05
-0.05
0.00
0.13
0.36
0.66
1.01
1.37
1.72
2.06
2.40
2.79
3.24
3.80
4.42
5.06
5.66
6.20
6.68
7.15
7.68
8.31
9.14
10.09
11.04
11.88
12.56
13.14
13.76
14.65
15.96
17.91
20.32
22.90
25.38
27.58
29.57
31.68
34.32
37.81
42.54
48.15
54.10
59.83
64.97
69.58
74.14
79.34
85.71
93.76
103.00
112.62
121.73
129.77
136.75
143.30
150.75
157.77
166.64
177.95
191.79
206.97
220.57
228.25
225.36
208.53
176.87
132.76
80.05
23.07
-34.94
-92.44
-149.16
-205.23
-260.37
-313.74
-363.87
-409.83
-450.90
-486.48
-515.70
-537.17
-549.14
-549.85
-538.22
-514.01
-478.43
-433.58
-382.10
-326.61
-269.36
-212.09
-156.05
-102.27
-51.62
-5.07
36.49
72.42
102.44
126.68
145.67
160.10
170.69
178.05
182.59
184.59
184.29
181.95
177.93
172.62
166.46
159.77
152.80
145.71
138.56
131.39
124.25
117.21
110.33
103.68
97.31
91.27
85.56
80.20
75.19
70.55
66.29
62.41
58.91
55.78
53.05
50.69
48.72
47.11
45.88
44.97
44.35
43.93
43.59
43.19
42.55
41.50
39.86
37.48
34.28
30.23
25.39
19.83
13.73
7.34
0.93
-5.23
-10.89
-15.81
-19.85
-22.90
-24.95
-26.02
-26.22
-25.67
-24.52
-22.94
-21.04
-18.95
-16.75
-14.48
-12.16
-9.80
-7.42
-5.01
-2.56
-0.06
2.51
5.16
7.90
10.75
13.67
16.62
19.59
22.58
25.60
28.67
31.83
35.13
38.65
42.32
46.10
49.97
53.96
58.09
62.39
66.91
71.72
76.91
82.32
87.86
93.46
99.06
104.62
110.11
115.51
120.84
126.14
131.15
135.63
139.41
142.27
143.96
144.12
142.27
137.70
131.75
124.89
117.40
109.49
101.27
92.87
84.40
75.99
67.79
60.04
52.65
45.64
39.06
33.03
27.66
23.07
19.38
16.72
15.20
14.67
15.01
16.09
17.74
19.79
22.04
24.34
26.53
28.55
30.24
31.53
32.40
32.83
32.79
32.31
31.38
30.03
28.39
26.49
24.44
22.30
20.09
17.78
15.28
12.51
9.43
6.14
2.78
-0.45
-3.41
-6.08
-8.60
-11.25
-14.34
-18.00
-22.18
-26.58
-30.81
-34.59
-37.93
-41.17
-44.94
-49.84
-56.21
-63.88
-72.30
-80.64
-88.31
-95.23
-101.95
-109.43
-118.69
-130.26
-143.94
-158.88
-173.94
-188.20
-201.36
-213.81
-226.54
-240.87
-258.28
-280.03
-306.67
-337.21
-368.50
-395.45
-412.20
-414.07
-399.41
-370.40
-332.20
-290.88
-251.30
-215.90
-184.89
-157.46
-133.09
-112.07
-95.20
-82.88
-74.61
-69.04
-64.51
-59.87
-54.73
-49.43
-44.57
-40.55
-37.43
-35.01
-33.15
-31.95
-31.80
-33.14
-36.30
-41.24
-47.59
-54.64
-61.45
-67.05
-70.50
-71.27
-69.44
-65.75
-61.48
-58.06
-56.60
-57.58
-60.67
-64.87
-68.73
-70.63
-69.19
-63.54
-53.50
-39.75
-23.52
-6.38
10.32
25.63
39.10
50.58
60.09
67.67
73.40
77.52
80.43
82.63
84.49
86.12
87.38
87.96
87.61
86.33
84.35
82.11
79.96
78.08
76.43
74.78
72.78
70.11
66.56
62.01
56.47
50.03
42.93
35.50
28.13
21.12
14.46
7.92
0.94
-7.06
-16.40
-26.81
-37.35
-46.53
-52.69
-54.39
-50.83
-42.01
-28.73
-12.37
5.38
22.77
38.34
51.12
60.73
67.33
71.44
73.69
74.64
74.66
74.03
73.00
71.84
70.82
70.13
69.83
69.88
70.16
70.50
70.69
70.47
69.63
68.06
65.91
63.48
61.07
58.69
56.06
52.66
48.13
42.47
36.24
30.33
25.63
22.60
21.11
20.46
19.62
17.61
13.86
8.59
2.93
-1.16
-1.34
4.39
16.99
36.01
59.56
84.88
109.13
130.26
147.67
162.42
176.84
193.74
215.21
241.56
270.90
299.40
322.34
335.47
336.26
324.37
301.39
270.01
233.24
193.79
153.95
115.62
80.36
49.14
22.22
-0.85
-21.07
-39.47
-56.67
-72.71
-87.16
-99.35
-108.78
-115.27
-119.10
-120.89
-121.42
-121.39
-121.20
-120.83
-119.85
-117.67
-113.90
-108.56
-102.07
-95.05
-88.05
-81.36
-75.11
-69.34
-64.18
-59.79
-56.22
-53.38
-50.92
-48.52
-45.94
-43.19
-40.48
-38.02
-35.92
-34.11
-32.38
-30.55
-28.58
-26.62
-24.90
-23.67
-23.03
-22.95
-23.23
-23.64
-23.90
-23.83
-23.37
-22.64
-21.93
-21.62
-21.94
-22.86
-24.06
-25.03
-25.40
-25.06
-24.32
-23.72
-23.70
-24.46
-25.77
-27.08
-27.76
-27.28
-25.30
-21.70
-16.66
-10.62
-4.22
1.78
6.69
10.10
11.95
12.53
12.26
11.48
10.37
8.91
7.08
4.97
2.79
0.83
-0.80
-2.08
-3.17
-4.18
-5.12
-5.88
-6.28
-6.27
-5.95
-5.57
-5.42
-5.74
-6.67
-8.21
-10.29
-12.75
-15.37
-17.82
-19.73
-20.80
-20.92
-20.32
-19.45
-18.89
-19.04
-19.99
-21.44
-22.84
-23.57
-23.11
-21.12
-17.45
-12.18
-5.64
1.56
8.63
14.67
18.97
21.17
21.38
20.13
18.09
15.88
13.79
11.81
9.76
7.42
4.79
2.16
-0.02
-1.35
-1.67
-1.18
-0.33
0.32
0.34
-0.40
-1.78
-3.50
-5.26
-6.81
-8.04
-8.98
-9.76
-10.53
-11.44
-12.53
-13.72
-14.90
-15.98
-16.89
-17.63
-18.25
-18.74
-19.17
-19.70
-20.57
-21.97
-23.86
-25.85
-27.21
-27.13
-24.98
-20.66
-14.65
-7.90
-1.55
3.38
6.25
6.87
5.51
2.73
-0.75
-4.35
-7.71
-10.73
-13.53
-16.28
-19.06
-21.80
-24.18
-25.80
-26.23
-25.19
-22.68
-18.98
-14.69
-10.49
-7.06
-4.78
-3.66
-3.39
-3.52
-3.73
-4.00
-4.52
-5.59
-7.35
-9.68
-12.31
-14.93
-17.43
-19.81
-22.12
-24.33
-26.30
-27.90
-29.08
-29.94
-30.48
-30.42
-29.23
-26.19
-20.80
-12.98
-3.22
7.58
18.37
28.17
36.26
42.16
45.70
47.01
46.53
44.95
43.10
41.68
41.06
41.22
41.78
42.22
42.09
41.11
39.16
36.26
32.48
27.90
22.66
17.07
11.53
6.52
2.36
-0.88
-3.41
-5.59
-7.74
-9.97
-12.13
-13.89
-15.06
-15.65
-15.99
-16.56
-17.81
-19.86
-22.47
-25.03
-26.69
-26.59
-24.11
-19.00
-11.55
-2.58
6.76
15.31
22.17
26.94
29.71
30.83
30.75
29.82
28.32
26.49
24.59
22.95
21.91
21.79
22.77
24.80
27.52
30.33
32.53
33.48
32.81
30.47
26.71
21.89
16.41
10.56
4.53
-1.57
-7.71
-13.85
-19.83
-25.38
-30.14
-33.74
-36.01
-37.04
-37.21
-37.09
-37.22
-37.99
-39.57
-41.79
-44.20
-46.08
-46.56
-44.88
-40.56
-33.66
-24.75
-14.79
-4.84
4.15
11.47
16.80
20.19
21.97
22.68
22.83
22.69
22.23
21.27
19.59
17.27
14.67
12.28
10.52
9.44
8.86
8.44
7.88
7.00
5.79
4.22
2.26
-0.14
-2.96
-6.12
-9.48
-12.97
-16.57
-20.32
-24.16
-27.97
-31.52
-34.65
-37.42
-40.07
-43.01
-46.58
-50.91
-55.85
-61.03
-65.85
-69.62
-71.59
-71.08
-67.61
-61.10
-52.03
-41.46
-30.76
-21.19
-13.61
-8.21
-4.67
-2.43
-0.95
0.14
1.02
1.86
2.91
4.48
6.82
10.01
13.82
17.81
21.56
24.75
27.31
29.34
30.95
32.18
32.87
32.74
31.42
28.64
24.37
18.86
12.67
6.42
0.69
-4.25
-8.53
-12.61
-17.10
-22.50
-28.90
-35.91
-42.63
-47.92
-50.58
-49.72
-45.00
-36.64
-25.50
-12.73
0.32
12.40
22.58
30.26
35.28
37.87
38.63
38.33
37.79
37.57
37.89
38.65
39.52
40.15
40.33
39.94
38.99
37.54
35.67
33.50
31.31
29.35
27.78
26.49
25.06
22.92
19.61
14.98
9.33
3.25
-2.60
-7.76
-12.12
-15.90
-19.56
-23.59
-28.39
-34.05
-40.25
-46.10
-50.30
-51.36
-48.10
-40.12
-27.92
-12.92
3.03
18.15
31.13
41.39
48.93
54.07
57.27
58.98
59.59
59.54
59.16
58.68
58.16
57.61
57.08
56.79
57.04
58.01
59.63
61.53
63.11
63.85
63.51
62.28
60.53
58.68
56.85
54.81
52.05
48.03
42.31
34.78
25.59
15.11
3.83
-7.75
-19.38
-31.11
-43.35
-56.81
-72.16
-89.57
-108.34
-126.68
-142.10
-152.03
-154.66
-149.47
-137.37
-120.39
-101.08
-81.93
-64.91
-51.26
-41.47
-35.33
-32.16
-30.97
-30.83
-31.00
-31.13
-31.22
-31.42
-31.85
-32.38
-32.72
-32.48
-31.44
-29.67
-27.51
-25.40
-23.64
-22.21
-20.86
-19.37
-17.68
-16.06
-14.91
-14.55
-15.00
-15.93
-16.95
-17.76
-18.42
-19.35
-21.17
-24.65
-30.43
-38.95
-50.11
-63.19
-76.74
-88.65
-96.56
-98.33
-92.78
-80.20
-62.56
-43.19
-25.94
-14.01
-9.01
-10.39
-15.69
-21.58
-24.99
-24.08
-18.52
-9.06
3.25
17.66
33.85
51.63
70.55
89.76
108.22
125.09
140.11
153.68
166.50
179.11
191.57
203.41
213.89
222.18
227.49
229.07
226.29
218.74
206.60
190.85
173.23
156.02
141.35
130.72
124.62
122.53
123.18
124.98
126.45
126.29
123.53
117.43
107.55
93.95
77.23
58.73
40.30
23.89
11.12
2.89
-0.82
-0.68
2.27
6.95
12.36
17.60
21.77
23.96
23.55
20.45
15.26
9.08
3.09
-2.03
-6.38
-10.71
-15.93
-22.48
-30.10
-37.99
-45.26
-51.36
-56.26
-60.25
-63.55
-66.11
-67.56
-67.48
-65.74
-62.58
-58.62
-54.57
-50.96
-48.03
-45.73
-43.82
-42.12
-40.54
-39.08
-37.71
-36.26
-34.39
-31.70
-27.95
-23.13
-17.58
-11.80
-6.33
-1.60
2.10
4.58
5.74
5.64
4.60
3.09
1.70
0.86
0.76
1.25
2.06
2.92
3.59
3.95
3.83
3.11
1.70
-0.34
-2.79
-5.30
-7.58
-9.44
-10.85
-11.92
-12.78
-13.62
-14.55
-15.69
-17.09
-18.72
-20.54
-22.45
-24.26
-25.59
-25.91
-24.56
-21.10
-15.52
-8.37
-0.60
6.75
12.82
17.21
19.81
20.77
20.22
18.31
15.28
11.54
7.63
4.05
1.17
-0.96
-2.45
-3.61
-4.67
-5.80
-7.06
-8.44
-9.90
-11.49
-13.33
-15.60
-18.48
-22.00
-26.04
-30.28
-34.34
-37.96
-41.12
-44.10
-47.35
-51.28
-56.14
-61.86
-68.08
-74.06
-78.82
-81.29
-80.63
-76.54
-69.45
-60.43
-50.92
-42.19
-35.02
-29.59
-25.54
-22.28
-19.30
-16.28
-13.16
-10.02
-6.99
-4.26
-1.98
-0.31
0.69
1.06
1.03
0.97
1.21
1.94
3.07
4.23
5.04
5.21
4.80
4.16
3.78
4.03
5.00
6.52
8.20
9.48
9.74
8.32
4.79
-0.90
-8.25
-16.14
-23.13
-27.77
-29.08
-26.69
-20.99
-12.93
-3.73
5.36
13.32
19.54
23.86
26.55
28.11
29.02
29.65
30.17
30.68
31.32
32.16
33.22
34.31
35.12
35.29
34.61
33.17
31.18
28.82
26.11
22.84
18.80
13.96
8.48
2.64
-3.39
-9.58
-16.01
-22.56
-28.94
-34.64
-39.18
-42.33
-44.22
-45.30
-46.13
-47.14
-48.49
-49.88
-50.60
-49.74
-46.36
-39.92
-30.50
-18.85
-6.20
6.17
17.20
26.19
32.80
36.98
38.96
39.17
38.26
36.92
35.69
34.80
34.20
33.71
33.22
32.76
32.45
32.33
32.33
32.26
31.98
31.46
30.74
29.72
28.22
25.97
22.78
18.81
14.56
10.70
7.86
6.30
5.74
5.38
4.22
1.35
-3.65
-10.59
-18.60
-26.44
-32.79
-36.63
-37.56
-35.78
-32.10
-27.58
-23.16
-19.47
-16.70
-14.66
-13.01
-11.49
-10.03
-8.73
-7.71
-7.09
-6.85
-6.98
-7.49
-8.43
-9.76
-11.18
-12.25
-12.42
-11.29
-8.84
-5.44
-1.78
1.47
3.75
4.83
4.69
3.52
1.58
-0.79
-3.14
-5.16
-6.72
-8.08
-9.81
-12.56
-16.74
-22.28
-28.56
-34.58
-39.10
-40.92
-39.13
-33.21
-23.37
-10.51
3.85
17.92
30.18
39.70
46.35
50.62
53.25
54.86
55.74
55.99
55.61
54.67
53.34
51.83
50.32
48.85
47.32
45.64
43.78
41.89
40.22
39.06
38.60
38.80
39.28
39.35
38.21
35.19
29.98
22.72
13.97
4.40
-5.41
-15.22
-25.00
-34.81
-44.57
-53.98
-62.67
-70.36
-77.01
-82.65
-87.12
-89.83
-89.77
-85.97
-77.95
-66.18
-52.09
-37.61
-24.60
-14.29
-7.03
-2.47
0.04
1.11
1.12
0.25
-1.39
-3.58
-6.04
-8.55
-11.03
-13.60
-16.51
-19.92
-23.78
-27.78
-31.47
-34.42
-36.36
-37.24
-37.23
-36.71
-36.13
-36.11
-37.23
-40.02
-44.73
-51.25
-59.10
-67.49
-75.60
-82.81
-88.98
-94.41
-99.73
-105.61
-112.44
-120.04
-127.68
-134.14
-138.03
-138.12
-133.64
-124.51
-111.40
-95.66
-78.85
-62.31
-46.71
-31.93
-17.39
-2.63
12.07
25.70
36.86
44.48
48.38
49.42
49.06
48.70
49.13
50.34
51.87
53.19
54.04
54.47
54.68
54.82
54.78
54.23
52.72
49.86
45.52
39.82
33.16
26.07
19.15
12.78
7.11
2.01
-2.86
-8.01
-13.85
-20.67
-28.63
-37.68
-47.46
-57.20
-65.66
-71.20
-72.15
-67.34
-56.51
-40.53
-21.18
-0.67
18.95
36.21
50.36
61.22
68.97
74.01
76.76
77.68
77.19
75.69
73.52
71.06
68.69
66.73
65.29
64.21
63.13
61.62
59.48
56.79
53.93
51.24
48.84
46.49
43.70
39.99
35.16
29.29
22.65
15.52
8.07
0.47
-7.03
-14.10
-20.50
-26.28
-31.89
-38.04
-45.36
-53.98
-63.21
-71.53
-76.95
-77.55
-72.09
-60.41
-43.52
-23.32
-2.14
17.85
35.14
48.94
59.17
66.16
70.32
72.10
71.94
70.36
67.93
65.21
62.61
60.33
58.22
56.08
53.75
51.23
48.75
46.60
44.99
43.85
42.75
41.01
37.89
32.90
26.05
17.93
9.51
1.79
-4.65
-9.81
-14.29
-18.96
-24.61
-31.74
-40.47
-50.38
-60.53
-69.50
-75.38
-76.40
-71.29
-59.87
-43.15
-23.05
-1.96
18.00
35.31
49.18
59.38
66.13
69.84
71.00
70.19
67.89
64.55
60.58
56.45
52.65
49.51
47.16
45.37
43.76
42.01
40.07
38.19
36.73
35.74
34.83
33.24
30.14
25.17
18.56
11.03
3.48
-3.43
-9.40
-14.45
-18.79
-22.80
-26.99
-32.10
-38.76
-47.27
-57.13
-66.84
-74.13
-76.67
-72.81
-62.18
-45.81
-25.82
-4.71
15.20
32.23
45.51
54.83
60.41
62.75
62.40
60.04
56.37
52.16
48.07
44.57
41.88
39.87
38.26
36.67
34.89
32.91
30.98
29.37
28.26
27.52
26.66
25.07
22.16
17.64
11.63
4.66
-2.54
-9.25
-14.97
-19.58
-23.37
-27.01
-31.33
-37.11
-44.67
-53.75
-63.32
-71.69
-76.93
-77.29
-71.75
-60.34
-44.26
-25.47
-6.27
11.34
26.01
37.16
44.80
49.23
50.84
50.03
47.29
43.30
38.88
34.85
31.74
29.73
28.56
27.78
27.00
26.13
25.32
24.88
24.89
25.07
24.76
23.16
19.78
14.66
8.35
1.72
-4.53
-10.11
-15.35
-20.89
-27.40
-35.28
-44.47
-54.40
-64.11
-72.22
-77.18
-77.52
-72.14
-60.90
-44.67
-25.35
-5.38
12.87
27.71
38.37
44.97
48.15
48.73
47.44
44.93
41.76
38.43
35.36
32.69
30.39
28.20
25.92
23.62
21.63
20.37
20.06
20.42
20.79
20.31
18.38
14.78
9.86
4.19
-1.62
-7.22
-12.57
-17.96
-23.89
-30.88
-39.31
-49.08
-59.45
-68.85
-75.20
-76.44
-71.26
-59.57
-42.68
-22.85
-2.68
15.59
30.52
41.56
48.79
52.78
54.23
53.90
52.48
50.51
48.29
45.87
43.20
40.20
36.91
33.48
30.15
27.16
24.69
22.89
21.71
20.91
19.99
18.33
15.34
10.75
4.75
-2.01
-8.78
-14.97
-20.48
-25.72
-31.54
-38.74
-47.78
-58.32
-69.15
-78.27
-83.40
-82.56
-74.74
-60.34
-41.10
-19.68
1.17
19.28
33.51
43.73
50.41
54.23
55.73
55.27
53.24
50.13
46.60
43.29
40.56
38.40
36.49
34.36
31.77
28.74
25.60
22.77
20.58
19.11
18.10
17.04
15.30
12.36
7.97
2.22
-4.47
-11.49
-18.28
-24.47
-29.93
-34.85
-39.66
-44.94
-51.33
-59.18
-68.17
-77.12
-84.04
-86.56
-82.89
-72.50
-56.51
-37.20
-17.31
0.90
16.22
28.40
37.77
44.75
49.54
52.22
52.89
51.95
50.00
47.74
45.66
43.94
42.44
40.88
39.02
36.88
34.70
32.89
31.76
31.41
31.54
31.63
31.06
29.33
26.25
21.92
16.75
11.32
6.18
1.63
-2.42
-6.47
-11.28
-17.48
-25.39
-34.72
-44.68
-54.01
-61.19
-64.62
-63.08
-55.85
-43.17
-26.32
-7.32
11.48
28.14
41.47
51.16
57.38
60.47
60.61
57.83
52.30
44.49
35.33
26.01
17.84
11.89
8.79
8.60
10.75
14.15
17.37
18.88
17.43
12.31
3.48
-8.37
-22.14
-36.54
-50.41
-63.01
-74.11
-84.10
-93.75
-103.89
-115.13
-127.51
-140.36
-152.40
-162.10
-167.90
-168.66
-163.96
-154.34
-141.31
-127.13
-114.08
-103.58
-95.44
-87.70
-77.39
-61.83
-39.99
-12.94
16.61
45.71
72.41
96.35
118.31
139.14
158.96
176.91
191.88
203.29
211.51
217.41
221.77
224.42
224.22
219.78
210.44
196.96
181.54
167.03
155.82
148.98
146.10
145.70
146.13
146.11
144.99
142.46
138.33
132.18
123.52
111.86
96.91
78.71
57.69
34.70
10.99
-11.97
-32.73
-50.22
-64.03
-74.41
-82.06
-87.73
-91.94
-94.96
-96.89
-97.96
-98.52
-99.00
-99.70
-100.58
-101.30
-101.31
-100.08
-97.40
-93.43
-88.75
-84.14
-80.38
-77.95
-76.98
-77.15
-77.86
-78.52
-78.76
-78.56
-78.25
-78.33
-79.28
-81.40
-84.80
-89.28
-94.24
-98.57
-100.70
-98.89
-91.88
-79.41
-62.52
-43.26
-24.10
-7.15
6.38
16.24
22.79
26.66
28.34
28.14
26.36
23.35
19.54
15.48
11.61
8.26
5.57
3.52
2.06
1.15
0.71
0.62
0.57
0.17
-1.02
-3.29
-6.67
-10.94
-15.70
-20.54
-25.22
-29.65
-34.07
-38.88
-44.56
-51.33
-58.86
-66.03
-71.02
-71.82
-66.91
-55.98
-40.07
-21.35
-2.33
14.83
28.78
39.19
46.33
50.77
53.04
53.51
52.52
50.46
47.80
44.98
42.32
39.89
37.61
35.36
33.14
31.09
29.42
28.31
27.60
26.86
25.42
22.73
18.52
12.93
6.49
-0.18
-6.52
-12.31
-17.73
-23.33
-29.83
-37.84
-47.47
-57.99
-67.83
-74.83
-76.84
-72.50
-61.66
-45.55
-26.35
-6.61
11.51
26.53
37.82
45.39
49.66
51.26
50.84
49.02
46.35
43.32
40.23
37.27
34.49
31.76
29.00
26.18
23.53
21.34
19.85
19.10
18.74
18.18
16.68
13.78
9.35
3.72
-2.48
-8.64
-14.37
-19.64
-24.80
-30.42
-36.97
-44.68
-53.27
-61.84
-69.00
-73.10
-72.61
-66.63
-55.17
-39.29
-20.86
-2.13
14.92
28.96
39.50
46.66
50.93
52.82
52.76
51.07
48.15
44.47
40.54
36.81
33.53
30.73
28.25
25.96
23.77
21.79
20.18
19.01
18.13
17.18
15.59
12.86
8.73
3.28
-3.03
-9.55
-15.66
-21.00
-25.51
-29.58
-33.91
-39.25
-46.15
-54.63
-63.95
-72.58
-78.49
-79.70
-74.82
-63.64
-47.19
-27.62
-7.54
10.64
25.28
35.78
42.43
46.09
47.73
48.14
47.76
46.84
45.55
44.10
42.69
41.41
40.06
38.31
35.79
32.40
28.45
24.55
21.33
19.14
17.78
16.61
14.77
11.60
6.88
0.97
-5.42
-11.52
-16.77
-21.10
-24.86
-28.60
-32.95
-38.39
-45.11
-52.96
-61.41
-69.37
-75.30
-77.43
-74.20
-64.93
-50.16
-31.68
-12.03
6.29
21.49
32.81
40.42
45.04
47.44
48.24
47.83
46.35
43.91
40.64
36.79
32.72
28.92
25.78
23.53
22.16
21.52
21.31
21.31
21.30
21.10
20.49
19.16
16.87
13.41
8.83
3.39
-2.48
-8.33
-13.76
-18.59
-22.89
-26.90
-31.04
-35.81
-41.61
-48.62
-56.61
-64.78
-71.77
-75.82
-75.24
-68.94
-56.92
-40.41
-21.54
-2.79
13.75
26.80
36.06
41.91
45.03
46.04
45.38
43.36
40.30
36.61
32.82
29.35
26.44
24.10
22.15
20.48
19.05
18.01
17.52
17.60
18.02
18.27
17.60
15.30
11.03
5.00
-2.00
-8.95
-14.92
-19.55
-23.06
-26.21
-29.91
-34.88
-41.37
-48.97
-56.78
-63.32
-66.96
-66.20
-60.17
-49.01
-33.92
-16.95
-0.34
13.99
24.90
32.10
35.92
37.09
36.39
34.55
32.08
29.33
26.40
23.32
20.06
16.74
13.62
10.96
9.05
8.02
7.74
7.84
7.83
7.19
5.56
2.91
-0.52
-4.24
-7.85
-11.13
-14.25
-17.65
-21.89
-27.44
-34.51
-43.00
-52.32
-61.38
-68.54
-71.95
-69.98
-61.80
-47.84
-29.72
-9.83
9.29
25.52
37.59
45.12
48.46
48.50
46.33
42.97
39.13
35.21
31.33
27.51
23.87
20.66
18.15
16.49
15.59
15.22
15.10
14.95
14.47
13.34
11.16
7.69
2.87
-2.92
-9.09
-15.03
-20.40
-25.37
-30.54
-36.64
-44.09
-52.61
-61.12
-67.86
-70.89
-68.64
-60.50
-46.93
-29.55
-10.59
7.60
23.11
34.84
42.47
46.39
47.44
46.58
44.71
42.52
40.44
38.63
37.03
35.41
33.54
31.25
28.56
25.68
22.99
20.85
19.44
18.66
18.05
16.98
14.81
11.09
5.81
-0.66
-7.59
-14.19
-19.86
-24.41
-28.19
-32.00
-36.75
-43.11
-51.00
-59.52
-66.93
-71.16
-70.48
-63.98
-52.04
-36.06
-18.14
-0.43
15.26
27.80
36.76
42.30
45.01
45.61
44.91
43.52
41.87
40.20
38.61
37.13
35.76
34.39
32.85
30.94
28.45
25.36
21.91
18.54
15.67
13.46
11.70
9.77
6.93
2.72
-2.87
-9.24
-15.45
-20.69
-24.65
-27.62
-30.49
-34.25
-39.69
-47.07
-55.98
-65.37
-73.71
-79.28
-80.52
-76.52
-67.20
-53.40
-36.70
-18.98
-2.09
12.51
23.94
31.86
36.51
38.46
38.44
37.08
34.97
32.58
30.29
28.40
27.07
26.19
25.44
24.45
23.02
21.27
19.60
18.38
17.64
16.95
15.55
12.83
8.57
3.09
-2.87
-8.56
-13.54
-17.75
-21.50
-25.31
-29.82
-35.63
-43.06
-51.93
-61.33
-69.49
-74.28
-73.79
-66.99
-54.21
-37.08
-17.95
0.83
17.48
31.11
41.53
49.00
53.82
56.26
56.57
55.09
52.33
48.84
45.20
41.76
38.61
35.68
32.88
30.18
27.62
25.41
23.63
22.28
21.14
19.78
17.68
14.34
9.55
3.48
-3.31
-10.02
-15.93
-20.68
-24.45
-27.79
-31.42
-35.93
-41.70
-48.82
-57.07
-65.83
-73.95
-79.79
-81.52
-77.72
-67.92
-52.94
-34.72
-15.69
1.96
16.87
28.56
37.26
43.41
47.35
49.26
49.27
47.64
44.82
41.44
38.20
35.60
33.84
32.82
32.14
31.33
30.09
28.37
26.38
24.45
22.77
21.27
19.64
17.42
14.24
10.00
4.87
-0.78
-6.56
-12.16
-17.43
-22.32
-26.90
-31.36
-36.01
-41.28
-47.54
-54.85
-62.72
-69.91
-74.66
-75.08
-69.85
-58.68
-42.56
-23.55
-4.16
13.36
27.42
37.42
43.57
46.58
47.29
46.44
44.55
41.92
38.81
35.54
32.47
29.93
28.12
27.02
26.37
25.82
25.10
24.14
23.08
22.12
21.31
20.42
18.99
16.52
12.69
7.51
1.35
-5.19
-11.49
-17.08
-21.82
-25.81
-29.43
-33.15
-37.51
-42.93
-49.60
-57.23
-64.94
-71.24
-74.41
-72.92
-66.01
-54.07
-38.53
-21.46
-4.94
9.48
20.97
29.29
34.63
37.31
37.73
36.39
33.87
30.70
27.34
24.07
20.99
18.15
15.59
13.47
11.95
11.16
11.11
11.66
12.44
12.91
12.50
10.65
7.13
2.07
-4.00
-10.30
-16.08
-20.84
-24.57
-27.73
-31.14
-35.64
-41.69
-49.06
-56.67
-62.77
-65.46
-63.23
-55.45
-42.66
-26.42
-8.88
7.75
21.72
32.05
38.63
42.02
43.17
42.92
41.86
40.17
37.78
34.63
30.82
26.71
22.76
19.39
16.84
15.16
14.23
13.83
13.63
13.20
12.08
9.87
6.42
1.95
-3.06
-8.00
-12.41
-16.22
-19.72
-23.56
-28.45
-34.88
-42.89
-51.81
-60.29
-66.41
-68.19
-64.15
-53.93
-38.52
-20.09
-1.34
15.29
28.14
36.71
41.37
43.01
42.64
41.16
39.23
37.33
35.78
34.66
33.86
33.07
31.91
30.07
27.54
24.58
21.59
19.00
16.96
15.31
13.65
11.44
8.33
4.21
-0.62
-5.74
-10.69
-15.24
-19.50
-23.87
-28.93
-35.19
-42.83
-51.44
-59.98
-66.85
-70.32
-68.97
-62.17
-50.28
-34.58
-16.92
0.72
16.67
29.88
39.91
46.84
51.04
53.01
53.19
51.97
49.69
46.72
43.47
40.36
37.69
35.58
33.88
32.31
30.63
28.75
26.79
24.95
23.33
21.74
19.87
17.27
13.68
9.09
3.74
-1.98
-7.70
-13.17
-18.31
-23.17
-27.93
-32.81
-38.16
-44.24
-51.08
-58.29
-64.86
-69.32
-70.01
-65.66
-55.83
-41.28
-23.78
-5.67
10.79
24.07
33.50
39.29
42.12
42.80
42.03
40.23
37.75
34.87
31.91
29.20
27.05
25.61
24.86
24.55
24.37
23.99
23.21
22.06
20.68
19.20
17.65
15.85
13.51
10.35
6.24
1.22
-4.40
-10.29
-16.03
-21.32
-25.99
-30.07
-33.79
-37.53
-41.78
-46.96
-53.13
-59.89
-66.21
-70.58
-71.47
-67.75
-59.12
-46.23
-30.47
-13.61
2.62
16.83
28.02
35.66
39.64
40.31
38.42
34.99
31.03
27.33
24.24
21.73
19.58
17.56
15.67
14.04
12.90
12.42
12.56
13.16
13.93
14.50
14.47
13.49
11.28
7.74
3.07
-2.32
-7.83
-12.95
-17.38
-21.19
-24.80
-28.83
-33.91
-40.27
-47.56
-54.74
-60.24
-62.32
-59.72
-51.99
-39.77
-24.55
-8.26
7.26
20.57
30.79
37.57
41.05
41.74
40.47
38.19
35.73
33.55
31.69
29.92
28.01
25.87
23.65
21.67
20.20
19.40
19.18
19.29
19.27
18.59
16.70
13.26
8.36
2.47
-3.54
-8.91
-13.23
-16.65
-19.79
-23.53
-28.63
-35.40
-43.69
-52.68
-61.05
-67.08
-69.06
-65.71
-56.69
-42.79
-25.83
-8.12
8.10
21.24
30.58
36.22
38.81
39.23
38.26
36.48
34.25
31.78
29.27
26.99
25.18
24.02
23.40
22.98
22.33
21.24
19.84
18.55
17.75
17.50
17.32
16.48
14.31
10.54
5.50
-0.17
-5.79
-10.99
-15.80
-20.55
-25.64
-31.35
-37.78
-44.76
-51.78
-57.96
-62.03
-62.63
-58.72
-49.97
-37.05
-21.50
-5.23
9.98
22.86
32.89
40.04
44.58
46.86
47.12
45.71
43.08
39.80
36.47
33.58
31.31
29.55
27.97
26.22
24.11
21.75
19.38
17.32
15.74
14.51
13.21
11.28
8.26
3.96
-1.40
-7.34
-13.30
-18.90
-24.03
-28.81
-33.44
-38.05
-42.74
-47.64
-52.96
-58.79
-64.84
-70.13
-73.09
-71.97
-65.63
-53.99
-38.28
-20.62
-3.29
11.88
23.93
32.67
38.34
41.38
42.14
41.05
38.62
35.51
32.45
30.00
28.43
27.62
27.18
26.60
25.53
23.90
21.97
20.15
18.80
18.02
17.65
17.34
16.67
15.26
12.78
9.04
4.04
-1.94
-8.31
-14.32
-19.30
-23.03
-25.83
-28.55
-32.17
-37.38
-44.19
-51.82
-58.88
-63.73
-64.84
-61.21
-52.64
-39.78
-24.02
-7.19
8.84
22.55
33.04
40.06
43.84
44.93
44.00
41.73
38.77
35.64
32.71
30.17
27.99
26.08
24.33
22.68
21.13
19.76
18.68
17.94
17.60
17.58
17.60
17.23
15.96
13.38
9.39
4.26
-1.41
-6.98
-11.94
-16.24
-20.17
-24.28
-29.14
-35.09
-42.00
-49.20
-55.54
-59.61
-60.05
-55.99
-47.41
-35.13
-20.71
-5.90
7.70
19.01
27.52
33.21
36.33
37.25
36.36
34.10
30.87
27.08
23.08
19.16
15.56
12.58
10.51
9.62
10.03
11.56
13.76
15.97
17.55
17.99
17.01
14.64
11.06
6.55
1.44
-3.90
-9.17
-14.20
-19.09
-24.23
-30.19
-37.36
-45.64
-54.10
-61.11
-64.73
-63.38
-56.34
-44.17
-28.54
-11.68
4.20
17.50
27.49
34.21
38.15
39.92
40.03
38.86
36.68
33.81
30.62
27.46
24.55
21.93
19.49
17.19
15.14
13.63
12.97
13.25
14.15
14.90
14.58
12.51
8.53
3.16
-2.66
-8.01
-12.35
-15.87
-19.37
-23.85
-30.10
-38.33
-47.93
-57.58
-65.49
-69.83
-69.20
-62.97
-51.48
-36.11
-18.85
-1.87
13.05
24.88
33.39
38.94
42.08
43.31
43.00
41.48
39.18
36.64
34.32
32.43
30.83
29.15
27.08
24.55
21.95
19.87
18.75
18.64
19.06
19.22
18.30
15.87
12.00
7.10
1.80
-3.44
-8.39
-13.04
-17.55
-22.19
-27.32
-33.35
-40.48
-48.48
-56.45
-62.83
-65.85
-64.04
-56.90
-45.07
-30.18
-14.31
0.68
13.49
23.62
31.12
36.34
39.68
41.42
41.73
40.78
38.76
36.00
32.91
29.88
27.14
24.79
22.77
21.01
19.52
18.38
17.62
17.21
16.89
16.28
14.94
12.63
9.28
5.06
0.31
-4.66
-9.52
-14.10
-18.35
-22.33
-26.30
-30.67
-35.88
-42.28
-49.74
-57.53
-64.23
-68.01
-67.27
-61.23
-50.25
-35.77
-19.84
-4.45
8.97
19.66
27.42
32.39
34.83
35.20
34.08
32.19
30.12
28.28
26.75
25.41
24.11
22.81
21.55
20.47
19.69
19.24
19.05
18.92
18.56
17.56
15.58
12.44
8.23
3.37
-1.63
-6.26
-10.31
-13.92
-17.60
-22.01
-27.72
-34.83
-42.81
-50.47
-56.20
-58.37
-55.79
-48.14
-36.06
-21.00
-4.86
10.45
23.51
33.53
40.40
44.56
46.59
47.01
46.17
44.22
41.36
37.86
34.14
30.54
27.27
24.35
21.70
19.39
17.56
16.44
16.11
16.39
16.78
16.60
15.21
12.25
7.78
2.29
-3.49
-8.87
-13.48
-17.34
-20.92
-24.84
-29.66
-35.69
-42.90
-50.86
-58.72
-65.21
-68.83
-68.08
-61.99
-50.57
-35.05
-17.56
-0.44
14.37
25.85
33.95
39.19
42.30
43.82
44.11
43.46
42.17
40.56
38.93
37.42
35.99
34.49
32.76
30.73
28.51
26.32
24.35
22.73
21.42
20.14
18.46
15.89
12.11
7.13
1.29
-4.80
-10.48
-15.33
-19.21
-22.32
-25.17
-28.42
-32.71
-38.46
-45.51
-53.01
-59.49
-63.19
-62.62
-57.03
-46.73
-32.97
-17.54
-2.29
11.28
22.21
30.16
35.30
38.03
38.84
38.15
36.31
33.62
30.43
27.13
24.12
21.70
19.95
18.76
17.87
17.09
16.31
15.54
14.87
14.34
13.81
12.97
11.39
8.71
4.80
-0.06
-5.31
-10.31
-14.59
-18.04
-20.93
-23.83
-27.32
-31.80
-37.42
-44.00
-50.94
-57.27
-61.68
-62.78
-59.49
-51.48
-39.32
-24.41
-8.51
6.67
19.86
30.36
37.90
42.52
44.47
44.14
42.07
38.93
35.37
31.90
28.84
26.30
24.29
22.76
21.60
20.66
19.80
18.96
18.10
17.25
16.29
14.98
12.91
9.80
5.63
0.75
-4.24
-8.72
-12.39
-15.41
-18.30
-21.72
-26.19
-31.94
-38.81
-46.23
-53.20
-58.37
-60.29
-57.83
-50.60
-39.21
-25.17
-10.38
3.41
15.11
24.31
31.02
35.44
37.73
38.02
36.63
34.11
31.14
28.39
26.26
24.76
23.69
22.72
21.69
20.63
19.77
19.41
19.70
20.58
21.61
22.21
21.74
19.72
16.04
10.99
5.08
-1.02
-6.73
-11.79
-16.20
-20.22
-24.33
-28.94
-34.39
-40.82
-47.95
-55.05
-60.95
-64.11
-63.11
-57.09
-46.17
-31.55
-15.21
0.62
14.17
24.46
31.43
35.60
37.66
38.17
37.39
35.52
32.81
29.75
26.93
24.95
24.07
24.17
24.82
25.45
25.66
25.30
24.45
23.32
22.07
20.72
19.10
16.99
14.13
10.38
5.74
0.33
-5.55
-11.51
-17.11
-22.07
-26.30
-29.97
-33.44
-37.19
-41.66
-47.03
-53.07
-59.05
-63.75
-65.80
-64.04
-57.92
-47.71
-34.49
-19.79
-5.21
7.96
18.92
27.35
33.28
36.95
38.70
38.86
37.78
35.79
33.19
30.26
27.29
24.52
22.04
19.91
18.10
16.62
15.50
14.81
14.51
14.35
13.87
12.61
10.24
6.73
2.32
-2.55
-7.39
-11.79
-15.49
-18.45
-20.89
-23.26
-26.13
-30.06
-35.28
-41.57
-48.08
-53.49
-56.27
-55.17
-49.62
-39.96
-27.29
-13.23
0.52
12.56
22.00
28.55
32.36
33.90
33.72
32.23
29.77
26.54
22.85
19.13
15.94
13.75
12.77
12.81
13.43
14.11
14.56
14.74
14.72
14.48
13.79
12.24
9.54
5.74
1.24
-3.42
-7.75
-11.63
-15.21
-18.84
-22.90
-27.69
-33.30
-39.61
-46.08
-51.69
-55.07
-54.81
-50.02
-40.70
-27.87
-13.30
1.10
13.82
24.02
31.44
36.13
38.28
38.16
36.18
32.95
29.20
25.64
22.71
20.58
19.14
18.21
17.58
17.11
16.76
16.55
16.48
16.45
16.27
15.63
14.19
11.72
8.18
3.76
-1.10
-6.01
-10.60
-14.77
-18.67
-22.68
-27.31
-33.00
-39.92
-47.72
-55.45
-61.58
-64.44
-62.74
-56.01
-44.74
-30.33
-14.60
0.68
14.16
25.04
33.03
38.17
40.77
41.25
40.13
37.98
35.33
32.56
29.87
27.38
25.16
23.33
21.96
21.03
20.43
19.98
19.53
18.99
18.36
17.53
16.29
14.26
11.14
6.85
1.72
-3.68
-8.76
-13.20
-17.07
-20.72
-24.65
-29.25
-34.81
-41.37
-48.66
-55.93
-61.99
-65.33
-64.56
-58.93
-48.62
-34.83
-19.42
-4.30
9.03
19.72
27.51
32.50
34.97
35.29
33.92
31.39
28.32
25.24
22.56
20.49
19.06
18.12
17.44
16.78
15.98
15.07
14.16
13.38
12.71
11.89
10.48
8.09
4.63
0.39
-4.09
-8.27
-11.89
-15.04
-18.17
-21.76
-26.30
-32.05
-38.94
-46.47
-53.56
-58.66
-60.08
-56.60
-47.97
-35.14
-19.98
-4.68
8.92
19.82
27.82
33.22
36.42
37.66
37.02
34.58
30.66
25.82
20.76
16.10
12.24
9.33
7.34
6.19
5.81
6.16
7.13
8.45
9.72
10.42
10.12
8.55
5.72
1.92
-2.36
-6.61
-10.51
-14.10
-17.78
-22.23
-27.97
-35.11
-43.03
-50.53
-56.00
-58.00
-55.58
-48.58
-37.67
-24.06
-9.34
4.93
17.40
27.15
33.78
37.40
38.49
37.74
35.83
33.32
30.59
27.85
25.28
22.93
20.85
18.95
17.21
15.69
14.54
13.99
14.03
14.40
14.49
13.65
11.44
7.92
3.68
-0.52
-4.13
-7.09
-9.89
-13.36
-18.28
-24.98
-33.15
-41.83
-49.53
-54.60
-55.58
-51.67
-42.97
-30.53
-16.11
-1.67
11.13
21.34
28.77
33.82
37.11
39.13
40.07
39.93
38.70
36.50
33.68
30.64
27.68
24.93
22.42
20.21
18.46
17.38
17.08
17.38
17.75
17.46
15.91
12.85
8.41
3.08
-2.53
-7.91
-12.74
-16.96
-20.79
-24.68
-29.17
-34.72
-41.45
-48.83
-55.67
-60.30
-61.04
-56.77
-47.41
-34.01
-18.40
-2.70
11.37
22.78
31.31
37.23
40.95
42.81
43.03
41.81
39.53
36.65
33.71
31.09
28.93
27.15
25.57
24.03
22.55
21.21
20.14
19.35
18.70
17.89
16.54
14.34
11.15
7.07
2.44
-2.29
-6.71
-10.61
-14.02
-17.13
-20.25
-23.76
-28.01
-33.32
-39.75
-46.92
-53.84
-59.06
-60.96
-58.40
-51.12
-39.95
-26.51
-12.76
-0.26
10.05
17.98
23.71
27.53
29.58
29.97
28.83
26.52
23.65
20.85
18.65
17.30
16.73
16.66
16.74
16.67
16.35
15.92
15.60
15.56
15.69
15.58
14.62
12.26
8.31
3.14
-2.43
-7.51
-11.58
-14.64
-17.29
-20.33
-24.42
-29.80
-36.12
-42.56
-47.97
-51.01
-50.54
-45.87
-37.04
-24.91
-11.06
2.67
14.67
23.95
30.28
34.03
35.74
35.92
34.94
33.14
30.92
28.76
27.09
26.12
25.69
25.40
24.72
23.30
21.12
18.60
16.33
14.83
14.33
14.48
14.50
13.45
10.63
5.93
-0.11
-6.46
-12.11
-16.48
-19.69
-22.40
-25.54
-29.79
-35.38
-41.96
-48.65
-54.27
-57.56
-57.51
-53.52
-45.61
-34.38
-20.97
-6.77
6.88
18.79
28.23
34.91
38.89
40.59
40.48
39.10
36.87
34.16
31.30
28.64
26.46
24.94
24.07
23.65
23.39
23.05
22.55
21.92
21.25
20.51
19.48
17.83
15.26
11.68
7.28
2.42
-2.45
-6.99
-11.11
-14.87
-18.50
-22.27
-26.48
-31.43
-37.31
-43.98
-50.80
-56.53
-59.64
-58.70
-52.97
-42.73
-29.30
-14.61
-0.63
11.13
20.01
26.09
29.88
32.04
33.11
33.39
33.03
32.13
30.82
29.27
27.74
26.40
25.32
24.45
23.65
22.79
21.82
20.77
19.74
18.79
17.77
16.42
14.38
11.49
7.84
3.73
-0.43
-4.33
-7.87
-11.15
-14.32
-17.51
-20.78
-24.19
-27.84
-31.93
-36.64
-42.01
-47.75
-53.20
-57.36
-59.11
-57.42
-51.77
-42.28
-29.87
-16.06
-2.58
9.11
18.10
24.20
27.76
29.37
29.61
28.82
27.19
24.87
22.21
19.68
17.82
16.98
17.15
17.94
18.74
19.00
18.46
17.23
15.69
14.20
12.93
11.74
10.22
8.06
5.07
1.42
-2.54
-6.41
-9.96
-13.23
-16.50
-20.17
-24.58
-29.87
-35.91
-42.22
-47.97
-52.11
-53.52
-51.28
-45.06
-35.25
-22.99
-9.86
2.57
13.07
21.04
26.45
29.64
31.07
31.14
30.14
28.28
25.84
23.16
20.65
18.59
17.12
16.11
15.36
14.61
13.75
12.82
11.98
11.36
10.97
10.61
9.90
8.36
5.66
1.72
-3.16
-8.40
-13.36
-17.59
-21.06
-24.12
-27.33
-31.20
-35.95
-41.32
-46.59
-50.69
-52.45
-50.84
-45.28
-35.88
-23.52
-9.64
4.08
16.18
25.73
32.43
36.48
38.31
38.46
37.41
35.58
33.34
31.06
29.00
27.36
26.18
25.30
24.47
23.45
22.17
20.81
19.67
18.96
18.61
18.20
17.18
15.14
12.03
8.14
3.92
-0.31
-4.51
-8.78
-13.19
-17.61
-21.76
-25.44
-28.81
-32.38
-36.79
-42.38
-48.78
-54.80
-58.66
-58.64
-53.80
-44.32
-31.55
-17.49
-4.11
7.26
16.11
22.66
27.36
30.64
32.68
33.50
33.20
32.03
30.40
28.70
27.23
26.08
25.16
24.37
23.59
22.81
22.07
21.48
21.02
20.63
20.15
19.42
18.35
16.84
14.83
12.26
9.05
5.14
0.58
-4.46
-9.69
-14.80
-19.55
-23.80
-27.60
-31.09
-34.51
-38.17
-42.36
-47.22
-52.52
-57.49
-60.87
-61.27
-57.62
-49.62
-37.98
-24.21
-10.17
2.56
12.92
20.56
25.60
28.37
29.22
28.45
26.41
23.64
20.70
18.17
16.30
15.04
14.09
13.18
12.29
11.64
11.64
12.55
14.32
16.52
18.51
19.68
19.60
18.15
15.41
11.67
7.33
2.85
-1.41
-5.15
-8.44
-11.56
-15.01
-19.28
-24.74
-31.40
-38.78
-45.90
-51.37
-53.76
-51.98
-45.74
-35.67
-23.15
-9.89
2.62
13.34
21.87
28.19
32.50
35.05
36.13
36.00
34.99
33.35
31.31
29.00
26.56
24.16
21.99
20.23
18.97
18.20
17.82
17.67
17.64
17.59
17.44
17.08
16.33
14.97
12.85
9.91
6.20
1.97
-2.53
-7.07
-11.50
-15.82
-20.06
-24.33
-28.73
-33.39
-38.51
-44.19
-50.27
-56.08
-60.42
-61.82
-59.09
-51.81
-40.67
-27.14
-13.06
0.05
11.27
20.34
27.32
32.31
35.32
36.37
35.69
33.76
31.23
28.69
26.51
24.78
23.36
22.12
20.98
20.02
19.39
19.12
19.05
18.79
17.91
16.19
13.79
11.08
8.58
6.51
4.69
2.71
0.13
-3.16
-6.90
-10.62
-13.96
-16.78
-19.26
-21.67
-24.27
-27.30
-30.95
-35.34
-40.43
-45.77
-50.35
-52.88
-52.09
-47.23
-38.47
-26.93
-14.37
-2.63
6.93
13.74
17.96
20.30
21.54
22.20
22.48
22.27
21.40
19.86
17.87
15.80
14.08
12.96
12.49
12.54
12.88
13.29
13.63
13.81
13.76
13.28
12.17
10.18
7.27
3.63
-0.34
-4.18
-7.53
-10.27
-12.51
-14.60
-16.95
-19.96
-23.90
-28.75
-34.12
-39.23
-42.98
-44.29
-42.32
-36.85
-28.32
-17.75
-6.44
4.40
13.85
21.32
26.58
29.63
30.67
30.11
28.44
26.28
24.13
22.35
21.07
20.24
19.75
19.46
19.20
18.81
18.13
17.12
15.86
14.61
13.59
12.84
12.12
11.01
9.18
6.50
3.16
-0.55
-4.41
-8.36
-12.52
-16.98
-21.74
-26.76
-32.00
-37.54
-43.43
-49.43
-54.74
-58.11
-58.09
-53.71
-44.95
-32.93
-19.49
-6.63
4.14
12.16
17.46
20.57
21.99
22.21
21.60
20.58
19.61
19.01
18.87
18.90
18.68
17.79
16.23
14.32
12.59
11.48
11.11
11.26
11.58
11.87
12.31
13.30
15.18
17.81
20.56
22.54
23.22
22.76
22.19
22.82
25.67
30.89
37.73
45.00
51.60
57.01
61.23
64.62
67.62
70.70
74.32
78.98
84.93
91.85
98.75
104.12
106.54
105.14
99.97
91.79
81.67
70.50
58.79
46.79
34.69
22.64
10.73
-1.16
-13.19
-25.50
-37.91
-49.83
-60.44
-68.99
-75.08
-78.78
-80.48
-80.70
-79.97
-78.73
-77.44
-76.51
-76.20
-76.48
-77.06
-77.52
-77.56
-77.14
-76.42
-75.63
-74.90
-74.33
-73.99
-74.10
-74.82
-76.11
-77.42
-77.71
-75.75
-70.64
-62.25
-51.25
-38.92
-26.59
-15.29
-5.61
2.27
8.37
12.78
15.64
17.18
17.68
17.42
16.63
15.51
14.17
12.76
11.41
10.29
9.51
9.16
9.28
9.87
10.83
11.93
12.75
12.74
11.47
8.72
4.76
0.19
-4.19
-7.77
-10.30
-12.06
-13.70
-15.99
-19.55
-24.62
-30.90
-37.61
-43.60
-47.58
-48.38
-45.28
-38.21
-27.80
-15.33
-2.32
9.71
19.64
26.86
31.29
33.21
33.13
31.58
29.02
25.83
22.29
18.71
15.35
12.54
10.43
9.03
8.16
7.56
6.99
6.39
5.83
5.32
4.77
3.91
2.39
-0.06
-3.48
-7.65
-12.15
-16.53
-20.45
-23.78
-26.66
-29.49
-32.78
-36.98
-42.26
-48.37
-54.53
-59.62
-62.35
-61.67
-56.94
-48.15
-35.87
-21.24
-5.59
9.66
23.32
34.58
43.04
48.62
51.53
52.11
50.83
48.28
45.14
42.05
39.52
37.75
36.68
36.06
35.58
34.97
34.12
33.12
32.13
31.26
30.53
29.75
28.60
26.74
23.89
19.92
14.97
9.38
3.62
-1.89
-6.90
-11.33
-15.31
-19.17
-23.32
-28.13
-33.71
-39.61
-44.88
-48.11
-48.01
-43.84
-35.82
-25.17
-13.64
-2.98
5.74
12.15
16.51
19.28
20.77
21.14
20.42
18.80
16.66
14.51
12.73
11.48
10.60
9.85
9.09
8.40
8.09
8.45
9.56
11.20
12.85
13.86
13.67
12.06
9.06
5.04
0.49
-4.15
-8.60
-12.73
-16.60
-20.37
-24.26
-28.43
-32.92
-37.48
-41.59
-44.42
-44.97
-42.47
-36.62
-27.77
-16.92
-5.36
5.67
15.30
23.10
28.96
32.88
34.77
34.60
32.51
28.94
24.60
20.40
17.09
15.05
14.15
13.94
13.83
13.41
12.64
11.80
11.25
11.24
11.73
12.27
12.32
11.32
8.98
5.38
0.84
-4.17
-9.16
-13.78
-17.86
-21.43
-24.75
-28.22
-32.22
-36.99
-42.30
-47.49
-51.42
-52.81
-50.58
-44.26
-34.22
-21.61
-8.07
4.81
15.92
24.85
31.70
36.87
40.68
43.20
44.40
44.29
43.16
41.52
39.88
38.61
37.74
37.09
36.47
35.89
35.52
35.63
36.34
37.56
38.90
39.84
39.94
38.93
36.70
33.24
28.45
22.26
14.81
6.58
-1.51
-8.49
-13.65
-16.93
-18.99
-20.93
-23.75
-27.88
-32.89
-37.62
-40.65
-40.86
-37.85
-32.03
-24.37
-16.06
-8.15
-1.42
3.53
6.15
6.15
3.75
-0.04
-3.46
-4.52
-1.74
5.16
15.20
26.68
38.08
48.79
59.08
69.65
80.87
92.30
102.76
110.87
115.71
117.10
115.52
111.68
106.04
98.65
89.28
77.78
64.42
50.00
35.59
22.09
9.91
-1.20
-11.94
-23.04
-34.81
-46.92
-58.36
-67.97
-74.80
-78.61
-79.89
-79.71
-79.27
-79.46
-80.64
-82.64
-84.99
-87.13
-88.66
-89.44
-89.58
-89.35
-89.06
-88.85
-88.58
-87.78
-85.69
-81.57
-74.92
-65.74
-54.57
-42.39
-30.41
-19.87
-11.79
-6.73
-4.55
-4.43
-5.04
-5.09
-3.89
-1.78
-0.05
-0.37
-3.99
-10.99
-20.08
-29.03
-35.56
-38.22
-36.77
-32.11
-25.75
-19.04
-12.83
-7.32
-2.21
2.76
7.57
11.78
14.78
16.08
15.63
13.86
11.41
8.87
6.41
3.71
0.34
-3.99
-9.16
-14.71
-20.09
-25.09
-30.00
-35.45
-42.19
-50.57
-60.44
-71.29
-82.83
-95.33
-109.72
-127.10
-147.98
-171.54
-195.31
-215.52
-227.85
-228.63
-215.71
-189.14
-151.11
-105.40
-56.39
-7.98
37.16
78.09
115.45
151.04
187.19
226.05
268.68
314.41
360.45
402.25
434.77
454.17
459.13
451.13
433.67
410.66
384.98
357.83
328.96
297.48
262.89
225.55
186.83
148.92
114.28
85.19
63.07
48.08
38.98
33.37
28.36
21.22
10.04
-5.75
-25.29
-46.47
-66.72
-83.89
-97.18
-107.32
-116.00
-124.91
-134.64
-144.50
-152.94
-158.58
-160.95
-160.64
-158.71
-156.01
-152.79
-148.91
-144.27
-139.16
-134.20
-129.88
-126.15
-122.36
-117.55
-110.99
-102.59
-93.04
-83.55
-75.40
-69.50
-66.17
-65.07
-65.34
-66.04
-66.55
-66.74
-67.03
-68.08
-70.30
-73.52
-76.94
-79.37
-79.61
-76.85
-70.97
-62.41
-52.17
-41.57
-31.98
-24.69
-20.47
-19.49
-21.19
-24.45
-28.00
-30.93
-32.93
-34.20
-35.12
-35.78
-35.78
-34.44
-31.24
-26.25
-20.30
-14.60
-10.26
-7.72
-6.70
-6.46
-6.22
-5.60
-4.61
-3.58
-2.83
-2.53
-2.85
-3.95
-6.02
-9.13
-12.95
-16.70
-19.24
-19.41
-16.43
-10.14
-1.05
9.80
21.05
31.44
39.97
46.05
49.52
50.68
50.06
48.32
45.99
43.39
40.57
37.49
34.14
30.73
27.64
25.26
23.75
22.98
22.54
21.90
20.65
18.63
15.85
12.38
8.23
3.47
-1.82
-7.39
-12.95
-18.31
-23.54
-28.97
-34.93
-41.37
-47.55
-52.12
-53.55
-50.78
-43.67
-33.08
-20.62
-7.99
3.49
13.13
20.75
26.42
30.27
32.32
32.69
31.64
29.64
27.27
24.96
22.90
21.09
19.40
17.74
16.21
14.92
13.92
13.09
12.14
10.72
8.56
5.63
2.03
-2.06
-6.47
-11.09
-15.85
-20.68
-25.57
-30.47
-35.21
-39.39
-42.22
-42.73
-40.09
-33.99
-24.89
-13.81
-2.08
9.22
19.42
28.39
36.19
42.84
48.22
52.05
54.17
54.63
53.74
51.99
49.87
47.80
46.08
44.92
44.41
44.54
45.11
45.83
46.37
46.45
45.92
44.80
43.16
41.00
38.32
35.01
30.98
26.19
20.57
13.97
6.17
-3.03
-13.60
-25.02
-36.27
-45.93
-52.48
-54.78
-52.42
-45.78
-35.98
-24.50
-12.84
-2.16
6.86
13.99
19.36
23.20
25.73
27.05
27.31
26.73
25.64
24.47
23.56
23.09
22.93
22.83
22.53
21.95
21.30
20.79
20.48
20.08
18.99
16.59
12.61
7.29
1.33
-4.40
-9.22
-12.90
-15.66
-18.14
-21.12
-25.27
-30.87
-37.66
-44.78
-50.92
-54.65
-54.86
-51.17
-44.04
-34.59
-24.28
-14.39
-5.80
1.11
6.32
10.15
13.09
15.70
18.49
21.75
25.50
29.59
33.72
37.68
41.35
44.63
47.53
49.99
52.12
54.15
56.41
59.17
62.46
65.87
68.73
70.20
69.56
66.34
60.31
51.55
40.46
27.76
14.38
1.26
-10.85
-21.61
-31.09
-39.61
-47.35
-54.21
-59.65
-62.94
-63.39
-60.72
-55.11
-47.24
-37.97
-28.21
-18.72
-10.10
-2.79
2.99
7.20
10.01
11.76
12.83
13.57
14.08
14.36
14.36
14.04
13.49
12.86
12.28
11.84
11.54
11.34
11.23
11.19
11.12
10.83
10.06
8.50
6.01
2.74
-0.93
-4.49
-7.50
-9.87
-11.85
-13.84
-16.22
-19.13
-22.49
-26.11
-29.81
-33.40
-36.64
-38.98
-39.64
-37.85
-33.15
-25.79
-16.66
-7.11
1.51
8.33
13.12
16.14
17.88
18.75
18.97
18.54
17.49
15.99
14.36
13.00
12.19
11.97
12.18
12.61
13.03
13.32
13.39
13.19
12.56
11.35
9.45
6.87
3.75
0.29
-3.25
-6.60
-9.63
-12.35
-15.02
-18.11
-21.99
-26.71
-31.77
-36.07
-38.33
-37.53
-33.42
-26.56
-18.15
-9.47
-1.48
5.34
10.96
15.46
18.83
20.93
21.66
21.13
19.70
17.93
16.22
14.83
13.75
12.88
12.21
11.75
11.60
11.75
12.00
12.08
11.67
10.55
8.63
5.91
2.50
-1.43
-5.64
-9.83
-13.69
-17.07
-20.11
-23.16
-26.67
-30.94
-35.75
-40.34
-43.58
-44.28
-41.71
-35.86
-27.51
-17.83
-8.10
0.77
8.26
14.19
18.58
21.49
23.05
23.54
23.27
22.56
21.60
20.42
19.01
17.43
15.91
14.73
14.06
13.94
14.15
14.37
14.30
13.68
12.40
10.44
7.87
4.80
1.39
-2.11
-5.45
-8.39
-10.93
-13.23
-15.73
-18.97
-23.38
-28.93
-34.97
-40.32
-43.58
-43.67
-40.20
-33.61
-24.94
-15.41
-6.11
2.30
9.46
15.30
19.80
23.00
24.97
25.84
25.81
25.09
23.91
22.46
20.98
19.65
18.58
17.80
17.20
16.64
16.01
15.33
14.79
14.59
14.76
15.05
15.01
14.12
12.06
8.91
5.08
1.17
-2.30
-5.07
-7.29
-9.27
-11.44
-14.15
-17.58
-21.76
-26.54
-31.52
-35.98
-39.02
-39.60
-36.99
-31.03
-22.21
-11.64
-0.64
9.57
18.24
25.08
30.18
33.84
36.41
38.22
39.52
40.49
41.30
42.13
43.11
44.32
45.82
47.59
49.60
51.77
54.08
56.45
58.78
60.87
62.54
63.68
64.37
64.86
65.37
65.94
66.39
66.30
65.26
62.98
59.38
54.37
47.87
39.62
29.40
17.19
3.43
-10.89
-24.44
-35.81
-43.96
-48.39
-49.37
-47.70
-44.46
-40.64
-36.92
-33.57
-30.68
-28.27
-26.32
-24.87
-23.88
-23.22
-22.74
-22.35
-22.03
-21.74
-21.44
-20.94
-20.10
-18.91
-17.50
-16.16
-15.13
-14.47
-14.14
-14.08
-14.34
-15.07
-16.41
-18.26
-20.35
-22.29
-23.81
-24.97
-26.11
-27.73
-30.22
-33.69
-37.83
-42.08
-45.57
-47.38
-46.72
-43.09
-36.48
-27.48
-17.16
-6.76
2.59
10.19
15.86
19.76
22.20
23.51
23.90
23.55
22.71
21.62
20.51
19.54
18.74
18.01
17.24
16.30
15.15
13.81
12.32
10.70
8.91
6.79
4.15
0.82
-3.28
-8.05
-13.14
-18.08
-22.43
-25.95
-28.79
-31.31
-34.07
-37.54
-41.93
-47.21
-53.04
-58.83
-63.76
-66.94
-67.46
-64.67
-58.43
-49.25
-38.26
-26.91
-16.50
-7.85
-1.18
3.77
7.41
10.07
11.88
12.88
13.10
12.73
12.15
11.79
11.91
12.52
13.34
13.97
14.11
13.66
12.79
11.81
11.00
10.52
10.27
9.96
9.20
7.66
5.13
1.68
-2.39
-6.64
-10.61
-14.05
-16.96
-19.66
-22.60
-26.12
-30.35
-35.09
-39.86
-43.89
-46.25
-46.08
-42.75
-36.06
-26.49
-15.02
-3.01
8.18
17.50
24.47
29.12
31.88
33.24
33.60
33.13
31.85
29.80
27.18
24.39
21.97
20.31
19.54
19.46
19.68
19.92
20.10
20.33
20.75
21.29
21.60
21.17
19.57
16.63
12.57
7.88
3.11
-1.29
-5.12
-8.39
-11.24
-13.90
-16.60
-19.54
-22.89
-26.67
-30.72
-34.54
-37.45
-38.61
-37.35
-33.32
-26.63
-17.84
-7.75
2.72
12.69
21.39
28.23
32.83
35.06
35.09
33.37
30.54
27.29
24.17
21.47
19.31
17.63
16.39
15.62
15.35
15.57
16.10
16.64
16.77
16.19
14.74
12.46
9.54
6.26
2.80
-0.72
-4.21
-7.76
-11.45
-15.38
-19.70
-24.48
-29.83
-35.71
-41.84
-47.58
-51.97
-53.82
-52.21
-46.73
-37.78
-26.48
-14.29
-2.60
7.53
15.56
21.29
24.79
26.27
26.01
24.33
21.64
18.30
14.72
11.28
8.30
5.97
4.32
3.18
2.31
1.54
0.85
0.32
0.03
-0.26
-1.08
-3.09
-6.76
-12.08
-18.44
-24.98
-30.83
-35.53
-39.06
-41.76
-44.13
-46.61
-49.56
-53.20
-57.58
-62.44
-67.01
-70.08
-70.27
-66.43
-58.15
-45.99
-31.31
-15.87
-1.27
11.46
21.90
30.04
36.06
40.08
42.19
42.60
41.68
40.00
38.10
36.40
35.03
33.96
33.13
32.53
32.22
32.30
32.68
33.17
33.53
33.56
33.19
32.43
31.29
29.69
27.43
24.38
20.51
16.00
11.21
6.47
1.99
-2.31
-6.75
-11.77
-17.81
-25.06
-33.35
-42.02
-50.03
-56.13
-59.14
-58.36
-53.70
-45.78
-35.69
-24.75
-14.20
-4.97
2.36
7.52
10.53
11.59
11.18
9.92
8.47
7.34
6.74
6.62
6.75
6.92
7.02
7.09
7.37
8.07
9.36
11.18
13.23
14.97
15.80
15.35
13.52
10.68
7.41
4.30
1.62
-0.83
-3.62
-7.44
-12.68
-19.25
-26.40
-32.81
-36.94
-37.41
-33.55
-25.50
-14.33
-1.58
11.19
22.86
32.96
41.52
48.80
54.90
59.67
62.69
63.56
62.07
58.50
53.69
49.06
46.41
47.53
53.53
64.22
77.91
91.81
103.01
109.64
111.52
110.08
107.32
104.68
102.34
99.35
94.51
87.26
78.07
68.05
58.17
48.63
38.75
27.61
14.74
0.69
-13.17
-25.04
-33.47
-37.62
-37.38
-33.13
-25.47
-15.15
-3.07
9.63
21.64
31.75
39.10
43.46
45.22
45.15
44.11
42.70
41.16
39.31
36.79
33.29
28.74
23.38
17.71
12.21
7.13
2.44
-2.18
-7.06
-12.40
-18.20
-24.37
-30.75
-37.29
-43.89
-50.46
-56.79
-62.73
-68.25
-73.61
-79.33
-86.02
-94.04
-103.25
-112.78
-121.18
-126.77
-128.15
-124.66
-116.68
-105.47
-92.81
-80.49
-69.87
-61.67
-56.07
-52.82
-51.47
-51.45
-52.18
-53.09
-53.70
-53.69
-52.94
-51.43
-49.21
-46.23
-42.25
-36.87
-29.59
-20.02
-8.00
6.23
22.09
38.88
55.90
72.77
89.48
106.32
123.69
141.75
160.08
177.56
192.29
201.95
204.23
197.56
181.58
157.49
127.93
96.59
67.34
43.41
26.68
17.33
13.99
14.27
15.55
15.76
13.82
9.72
4.27
-1.44
-6.48
-10.41
-13.25
-15.32
-16.96
-18.38
-19.61
-20.56
-21.20
-21.56
-21.74
-21.76
-21.55
-20.86
-19.42
-17.12
-14.19
-11.13
-8.65
-7.42
-7.77
-9.68
-12.83
-16.78
-21.21
-25.96
-30.97
-36.26
-41.86
-47.81
-54.19
-61.01
-68.15
-75.25
-81.76
-87.09
-90.79
-92.59
-92.51
-90.69
-87.43
-83.21
-78.71
-74.78
-72.31
-71.93
-73.78
-77.39
-81.87
-86.24
-89.74
-92.10
-93.51
-94.35
-94.93
-95.28
-95.05
-93.81
-91.32
-87.65
-83.11
-78.01
-72.34
-65.86
-58.33
-49.76
-40.49
-31.00
-21.59
-12.23
-2.67
7.24
17.22
26.56
34.34
39.78
42.62
43.19
42.29
41.00
40.40
41.38
44.41
49.51
56.11
63.28
69.94
75.13
78.30
79.41
78.96
77.99
77.86
79.90
84.98
93.12
103.22
113.24
120.74
123.62
120.78
112.47
100.21
86.41
73.66
64.11
59.01
58.50
61.55
66.23
69.99
70.31
65.30
54.31
38.15
18.82
-1.20
-19.93
-36.70
-52.30
-68.60
-87.42
-109.52
-133.89
-157.89
-178.07
-191.36
-196.00
-191.79
-179.79
-161.59
-138.77
-112.63
-84.25
-54.76
-25.39
2.72
28.74
52.26
73.19
91.55
107.32
120.29
130.18
136.50
138.39
134.55
123.40
103.55
74.63
37.87
-3.91
-46.58
-85.41
-115.77
-133.64
-136.33
-123.27
-96.67
-61.54
-24.55
7.99
32.27
47.91
57.34
63.95
69.98
75.60
79.29
79.32
75.25
68.33
60.81
54.78
51.05
49.07
47.54
45.19
41.46
36.61
31.30
26.13
21.27
16.37
10.94
4.76
-1.71
-7.48
-11.34
-12.58
-11.33
-8.63
-5.94
-4.48
-4.46
-4.89
-3.95
0.14
8.08
18.81
29.56
36.62
36.61
27.69
10.29
-12.99
-38.26
-61.58
-80.14
-92.79
-99.97
-103.01
-103.33
-101.82
-98.65
-93.49
-85.99
-76.13
-64.32
-51.25
-37.56
-23.66
-9.86
3.40
15.35
25.11
32.23
37.19
41.35
46.35
53.23
61.68
70.09
76.16
77.90
74.16
64.88
50.76
32.96
12.88
-7.85
-27.25
-43.50
-55.50
-63.40
-68.60
-73.14
-78.63
-85.52
-93.00
-99.44
-103.32
-104.02
-102.05
-98.82
-95.83
-93.87
-92.43
-89.81
-83.60
-71.46
-52.02
-25.41
6.39
39.79
70.31
93.88
108.26
114.22
115.65
118.43
128.33
148.60
178.69
214.36
249.37
277.71
295.20
300.00
292.06
272.24
241.69
202.10
156.06
107.45
61.08
21.69
-7.37
-25.20
-33.58
-36.22
-37.21
-39.34
-43.18
-47.38
-49.98
-50.04
-48.34
-47.02
-48.14
-52.26
-58.09
-63.28
-65.89
-65.62
-63.86
-62.85
-64.33
-68.67
-74.75
-80.77
-84.99
-86.57
-85.66
-83.08
-79.79
-76.35
-72.76
-68.68
-63.93
-58.80
-54.14
-50.93
-49.73
-50.19
-51.00
-50.50
-47.31
-41.09
-32.63
-23.59
-15.70
-10.13
-7.22
-6.53
-7.30
-8.85
-10.78
-12.91
-15.19
-17.51
-19.72
-21.69
-23.40
-24.90
-26.29
-27.51
-28.35
-28.51
-27.74
-25.92
-23.10
-19.44
-15.02
-9.95
-4.29
1.72
7.61
12.65
16.09
17.40
16.58
14.03
10.42
6.26
1.75
-3.26
-8.98
-15.34
-21.80
-27.46
-31.50
-33.61
-34.30
-34.77
-36.41
-40.18
-46.28
-54.06
-62.49
-70.58
-77.75
-83.81
-88.60
-91.94
-93.48
-93.06
-90.98
-88.04
-85.17
-82.93
-81.09
-78.61
-74.04
-66.15
-54.47
-39.47
-22.40
-4.85
11.81
26.65
39.32
49.84
58.28
64.60
68.66
70.45
70.40
69.46
68.78
69.32
71.27
74.08
76.73
78.18
77.97
76.16
73.25
69.86
66.39
63.02
59.71
56.29
52.50
48.10
42.90
36.85
30.02
22.50
14.29
5.18
-4.96
-15.89
-26.81
-36.28
-42.73
-45.00
-42.79
-36.81
-28.45
-19.23
-10.33
-2.45
4.10
9.08
12.24
13.33
12.36
9.72
6.19
2.64
-0.27
-2.34
-3.75
-4.82
-5.74
-6.40
-6.48
-5.81
-4.49
-3.09
-2.33
-2.91
-5.17
-9.06
-14.16
-19.90
-25.74
-31.33
-36.54
-41.53
-46.70
-52.57
-59.52
-67.45
-75.49
-82.02
-85.11
-83.09
-75.25
-62.11
-45.27
-26.84
-8.76
7.69
21.98
34.10
44.16
52.13
57.79
60.89
61.46
59.84
56.73
52.98
49.28
46.06
43.37
41.01
38.68
36.16
33.38
30.38
27.26
24.12
21.01
17.96
14.95
12.07
9.53
7.65
6.86
7.34
8.93
10.99
12.44
12.11
9.08
3.15
-5.05
-13.93
-21.42
-25.37
-24.15
-17.07
-4.59
11.79
30.00
47.82
63.40
75.56
83.73
87.74
87.62
83.43
75.36
63.81
49.62
34.10
18.85
5.44
-5.07
-12.50
-17.50
-21.34
-25.34
-30.45
-37.06
-45.06
-54.11
-63.82
-73.71
-83.08
-90.91
-95.85
-96.69
-92.75
-84.44
-73.26
-61.36
-50.75
-42.63
-37.01
-32.93
-29.03
-24.19
-17.87
-9.98
-0.58
10.34
22.88
36.88
51.63
65.75
77.49
85.20
87.84
85.27
78.14
67.79
55.86
43.97
33.44
25.01
18.75
14.20
10.63
7.46
4.55
2.36
1.63
3.08
6.98
13.08
20.74
29.14
37.56
45.27
51.55
55.58
56.57
54.00
47.86
38.70
27.55
15.51
3.58
-7.57
-17.51
-26.05
-33.08
-38.66
-42.88
-45.73
-47.12
-46.83
-44.70
-40.78
-35.45
-29.32
-23.14
-17.55
-12.91
-9.35
-6.80
-5.06
-3.87
-2.88
-1.85
-0.58
0.95
2.66
4.43
6.25
8.09
9.85
11.20
11.53
10.14
6.48
0.45
-7.54
-16.64
-25.92
-34.58
-42.06
-48.07
-52.41
-55.00
-55.88
-55.30
-53.74
-51.82
-50.16
-49.07
-48.36
-47.39
-45.20
-40.85
-33.82
-24.21
-12.79
-0.80
10.45
19.95
27.15
32.04
34.97
36.48
37.17
37.62
38.35
39.66
41.52
43.67
45.65
46.99
47.50
47.28
46.67
45.96
45.20
44.13
42.35
39.56
35.68
30.95
25.78
20.69
16.12
12.43
9.81
8.32
7.87
8.12
8.52
8.24
6.22
1.56
-6.14
-16.32
-27.41
-37.13
-43.25
-44.36
-40.44
-32.65
-22.73
-12.24
-2.11
7.28
15.74
22.92
28.29
31.40
32.25
31.30
29.31
26.96
24.61
22.27
19.84
17.32
14.87
12.85
11.51
10.92
11.00
11.55
12.40
13.35
14.15
14.42
13.77
11.86
8.67
4.47
-0.21
-4.79
-9.00
-12.96
-17.19
-22.32
-28.77
-36.49
-44.92
-53.08
-59.85
-64.27
-65.67
-63.82
-58.84
-51.15
-41.35
-30.16
-18.38
-6.79
3.94
13.35
21.21
27.47
32.11
35.09
36.28
35.55
32.92
28.71
23.50
18.05
13.15
9.24
6.39
4.27
2.32
0.03
-2.95
-6.71
-11.15
-16.05
-21.08
-25.94
-30.28
-33.94
-36.94
-39.72
-42.99
-47.64
-54.32
-63.17
-73.55
-84.07
-92.79
-97.63
-96.94
-89.96
-77.06
-59.72
-40.14
-20.62
-3.04
11.40
22.34
30.01
34.97
37.88
39.32
39.78
39.66
39.26
38.69
37.90
36.73
35.04
32.91
30.64
28.73
27.61
27.40
27.72
27.87
27.10
24.89
21.16
16.17
10.37
4.17
-2.15
-8.39
-14.41
-20.18
-25.85
-31.75
-38.38
-46.02
-54.48
-62.84
-69.52
-72.66
-70.79
-63.35
-50.96
-35.18
-18.04
-1.39
13.44
25.84
35.73
43.25
48.61
52.08
53.93
54.53
54.32
53.70
52.97
52.24
51.51
50.71
49.77
48.63
47.31
45.91
44.58
43.47
42.55
41.55
40.02
37.38
33.16
27.25
19.95
11.95
4.06
-3.01
-8.91
-13.83
-18.36
-23.31
-29.48
-37.24
-46.33
-55.66
-63.58
-68.27
-68.34
-63.33
-53.81
-41.25
-27.37
-13.66
-1.08
9.91
19.09
26.18
30.83
32.76
32.00
29.06
24.83
20.31
16.41
13.70
12.33
12.19
12.86
13.91
14.81
15.19
14.77
13.54
11.68
9.52
7.32
5.14
2.69
-0.46
-4.48
-8.96
-12.70
-14.07
-11.75
-5.40
3.88
13.78
21.59
25.15
23.52
17.26
8.06
-1.74
-9.78
-14.14
-13.64
-8.03
2.12
15.56
30.81
46.44
61.26
74.42
85.26
93.26
97.98
99.11
96.55
90.59
81.88
71.38
60.17
49.28
39.36
30.60
22.79
15.52
8.48
1.59
-4.83
-10.18
-13.66
-14.53
-12.35
-7.33
-0.54
6.23
11.00
12.39
10.28
5.85
1.10
-2.03
-2.45
-0.24
3.70
8.25
12.42
15.56
17.19
16.90
14.54
10.47
5.77
2.15
1.32
4.31
11.03
20.26
30.20
39.20
46.17
50.83
53.45
54.57
54.73
54.42
54.00
53.76
53.88
54.40
55.27
56.32
57.24
57.53
56.56
53.74
48.82
42.11
34.44
26.77
19.55
12.46
4.38
-5.97
-19.24
-34.94
-51.46
-66.69
-78.94
-87.56
-93.07
-96.81
-100.30
-104.50
-109.50
-114.44
-117.88
-118.31
-114.73
-106.95
-95.67
-82.25
-68.21
-54.87
-43.04
-33.09
-25.06
-18.93
-14.65
-12.16
-11.12
-10.90
-10.64
-9.49
-6.92
-2.83
2.35
7.96
13.39
18.32
22.79
27.09
31.61
36.57
41.98
47.57
52.95
57.68
61.31
63.41
63.60
61.60
57.40
51.22
43.58
35.17
26.66
18.47
10.68
3.01
-4.98
-13.60
-22.84
-32.17
-40.66
-47.16
-50.67
-50.64
-47.15
-40.91
-33.03
-24.66
-16.77
-9.97
-4.59
-0.80
1.33
1.75
0.52
-2.13
-5.78
-9.83
-13.63
-16.59
-18.33
-18.75
-18.12
-16.92
-15.66
-14.70
-14.13
-13.74
-13.29
-12.73
-12.35
-12.72
-14.40
-17.64
-22.20
-27.44
-32.57
-36.99
-40.42
-42.99
-45.12
-47.33
-50.11
-53.79
-58.34
-63.24
-67.51
-69.84
-68.97
-64.14
-55.34
-43.39
-29.67
-15.75
-2.91
8.02
16.75
23.41
28.33
31.90
34.41
36.14
37.30
38.21
39.13
40.27
41.64
42.94
43.74
43.66
42.57
40.65
38.31
35.91
33.52
31.01
28.09
24.70
21.04
17.55
14.72
12.81
11.66
10.80
9.57
7.37
3.84
-1.03
-7.07
-13.91
-21.17
-28.34
-34.82
-39.92
-42.99
-43.60
-41.73
-37.78
-32.43
-26.41
-20.30
-14.40
-8.79
-3.44
1.61
6.29
10.45
13.97
16.74
18.69
19.80
20.12
19.76
18.95
17.87
16.59
15.02
12.92
10.05
6.33
1.94
-2.74
-7.36
-11.78
-16.18
-20.87
-26.16
-32.12
-38.61
-45.36
-52.21
-59.26
-66.75
-74.90
-83.82
-93.51
-104.01
-115.48
-128.07
-141.60
-155.18
-167.24
-175.82
-179.17
-176.27
-167.06
-152.28
-133.02
-110.27
-84.70
-56.78
-27.06
3.57
33.78
61.99
86.68
106.75
121.69
131.67
137.31
139.48
139.04
136.66
132.75
127.53
121.20
114.07
106.63
99.47
93.11
87.80
83.36
79.36
75.25
70.60
65.26
59.32
53.04
46.66
40.31
34.01
27.68
21.23
14.65
7.99
1.29
-5.43
-12.08
-18.40
-23.83
-27.58
-28.84
-27.13
-22.54
-15.72
-7.71
0.43
7.93
14.32
19.43
23.20
25.66
26.91
27.13
26.61
25.64
24.41
22.98
21.35
19.57
17.77
16.16
14.92
14.15
13.74
13.47
13.09
12.42
11.41
10.13
8.65
6.98
5.01
2.63
-0.20
-3.36
-6.56
-9.57
-12.26
-14.83
-17.74
-21.47
-26.38
-32.28
-38.42
-43.59
-46.51
-46.17
-42.19
-34.91
-25.24
-14.34
-3.36
6.80
15.52
22.40
27.29
30.18
31.27
30.93
29.59
27.65
25.45
23.23
21.22
19.61
18.56
18.12
18.18
18.47
18.62
18.38
17.72
16.79
15.80
14.85
13.77
12.26
9.92
6.60
2.44
-2.17
-6.72
-10.83
-14.34
-17.31
-19.97
-22.61
-25.56
-29.18
-33.78
-39.29
-45.11
-50.03
-52.48
-51.17
-45.63
-36.47
-25.20
-13.60
-3.07
5.72
12.71
18.12
22.10
24.67
25.87
25.98
25.52
25.04
24.83
24.77
24.49
23.62
22.02
19.89
17.67
15.84
14.73
14.30
14.22
14.01
13.24
11.80
9.84
7.71
5.69
3.81
1.82
-0.62
-3.65
-7.23
-11.10
-14.98
-18.76
-22.53
-26.53
-31.03
-36.17
-41.81
-47.52
-52.50
-55.72
-56.22
-53.40
-47.23
-38.27
-27.49
-15.95
-4.65
5.65
14.37
21.18
25.95
28.81
30.16
30.46
30.12
29.38
28.34
26.99
25.40
23.78
22.38
21.40
20.93
20.85
20.92
20.89
20.59
19.96
19.06
17.96
16.73
15.32
13.60
11.46
8.80
5.64
2.08
-1.74
-5.64
-9.49
-13.23
-16.95
-20.81
-25.08
-29.94
-35.40
-41.15
-46.59
-50.86
-52.99
-52.15
-47.88
-40.26
-30.01
-18.35
-6.72
3.63
11.91
17.97
22.13
24.84
26.45
27.04
26.53
25.00
22.78
20.49
18.76
17.95
17.96
18.37
18.67
18.53
17.97
17.19
16.40
15.62
14.65
13.20
11.00
8.01
4.38
0.33
-3.95
-8.40
-12.99
-17.62
-22.16
-26.45
-30.47
-34.36
-38.44
-43.08
-48.39
-54.09
-59.36
-63.05
-63.94
-61.19
-54.61
-44.78
-32.84
-20.21
-8.18
2.35
10.97
17.72
22.84
26.59
29.19
30.82
31.62
31.83
31.68
31.39
31.06
30.69
30.19
29.50
28.65
27.76
27.01
26.40
25.84
25.04
23.72
21.67
18.85
15.36
11.39
7.09
2.62
-1.92
-6.40
-10.73
-14.79
-18.58
-22.12
-25.56
-29.12
-33.12
-37.88
-43.50
-49.79
-56.09
-61.33
-64.27
-63.83
-59.48
-51.47
-40.79
-28.78
-16.88
-6.15
2.80
9.84
15.08
18.90
21.67
23.79
25.61
27.30
28.86
30.04
30.56
30.21
29.01
27.25
25.27
23.49
22.12
21.34
21.12
21.38
21.87
22.25
22.13
21.28
19.64
17.42
14.93
12.37
9.73
6.79
3.29
-0.84
-5.40
-9.95
-14.03
-17.39
-20.09
-22.52
-25.23
-28.70
-33.10
-38.19
-43.20
-46.99
-48.38
-46.39
-40.63
-31.38
-19.52
-6.26
7.18
19.86
31.21
41.11
49.76
57.62
65.27
73.24
81.75
90.57
99.02
106.19
111.30
113.93
114.13
112.26
108.77
104.05
98.41
92.09
85.30
78.23
70.94
63.29
55.02
45.87
35.72
24.69
13.07
1.28
-10.34
-21.55
-32.17
-42.07
-51.09
-59.13
-66.21
-72.64
-78.82
-85.20
-91.85
-98.22
-103.19
-105.41
-103.77
-97.97
-88.68
-77.25
-65.28
-54.04
-44.24
-36.05
-29.35
-24.00
-19.91
-17.08
-15.42
-14.77
-14.88
-15.48
-16.36
-17.34
-18.26
-18.92
-19.11
-18.72
-17.77
-16.42
-14.94
-13.60
-12.64
-12.18
-12.23
-12.75
-13.65
-14.88
-16.43
-18.36
-20.80
-23.85
-27.54
-31.77
-36.30
-40.90
-45.41
-49.95
-54.93
-60.89
-68.26
-76.99
-86.28
-94.53
-99.66
-99.57
-92.91
-79.47
-60.33
-37.51
-13.41
9.80
30.57
48.11
62.27
73.35
81.96
88.81
94.63
99.97
105.09
109.95
114.15
117.21
118.65
118.20
115.85
111.87
106.67
100.66
94.11
87.00
79.14
70.24
60.20
49.20
37.68
26.15
15.01
4.51
-5.28
-14.23
-22.20
-29.07
-34.92
-40.14
-45.39
-51.37
-58.47
-66.67
-75.55
-84.59
-93.50
-102.35
-111.44
-120.86
-130.14
-138.17
-143.48
-144.82
-141.70
-134.64
-124.93
-114.08
-103.44
-93.81
-85.52
-78.66
-73.20
-69.08
-66.08
-63.74
-61.44
-58.57
-54.73
-49.88
-44.30
-38.33
-32.10
-25.33
-17.36
-7.42
5.04
20.02
37.00
55.10
73.35
90.95
107.28
121.90
134.42
144.52
152.01
157.08
160.29
162.57
164.93
168.02
171.90
175.78
178.21
177.43
172.04
161.44
146.15
127.63
107.86
88.89
72.43
59.76
51.70
48.64
50.44
56.27
64.68
73.70
81.37
86.26
87.60
85.32
79.67
70.99
59.74
46.68
33.04
20.44
10.34
3.51
-0.40
-2.73
-5.12
-8.70
-13.64
-19.12
-23.99
-27.33
-28.96
-29.29
-29.00
-28.60
-28.30
-28.10
-28.06
-28.42
-29.59
-32.02
-35.92
-41.29
-47.88
-55.22
-62.78
-70.08
-76.67
-82.29
-86.85
-90.42
-93.05
-94.63
-94.90
-93.56
-90.54
-86.16
-81.11
-76.25
-72.20
-69.10
-66.69
-64.45
-61.96
-59.10
-55.93
-52.59
-48.90
-44.43
-38.60
-31.10
-22.11
-12.45
-3.34
3.97
8.62
10.40
9.73
7.37
4.11
0.51
-3.18
-6.93
-10.76
-14.65
-18.57
-22.59
-26.99
-32.22
-38.53
-45.73
-52.96
-58.71
-61.39
-59.86
-53.89
-44.16
-32.00
-18.94
-6.23
5.31
15.29
23.54
29.94
34.40
36.90
37.55
36.62
34.51
31.59
28.21
24.62
21.00
17.51
14.36
11.78
10.01
9.14
9.04
9.32
9.47
9.02
7.68
5.43
2.46
-0.98
-4.64
-8.45
-12.40
-16.64
-21.40
-26.99
-33.69
-41.47
-49.76
-57.33
-62.56
-63.90
-60.44
-52.29
-40.54
-26.90
-13.05
-0.32
10.66
19.73
26.96
32.48
36.33
38.57
39.33
38.91
37.71
36.05
34.16
32.06
29.75
27.26
24.76
22.56
20.99
20.16
19.86
19.60
18.84
17.22
14.68
11.44
7.79
3.92
-0.25
-4.96
-10.52
-17.13
-24.70
-32.73
-40.33
-46.21
-49.04
-47.85
-42.35
-33.06
-21.30
-8.69
3.27
13.55
21.70
27.79
32.15
35.21
37.27
38.46
38.73
37.96
36.07
33.18
29.63
25.98
22.83
20.56
19.25
18.62
18.20
17.43
15.95
13.54
10.18
5.97
1.05
-4.39
-10.17
-16.15
-22.30
-28.81
-35.88
-43.57
-51.45
-58.43
-62.94
-63.39
-58.81
-49.27
-35.96
-20.67
-5.32
8.69
20.58
30.21
37.67
43.18
46.92
49.02
49.70
49.18
47.72
45.56
42.89
39.92
36.92
34.15
31.75
29.73
27.88
25.90
23.51
20.54
16.93
12.65
7.71
2.15
-3.95
-10.39
-17.06
-24.04
-31.62
-40.16
-49.62
-59.17
-67.17
-71.58
-70.74
-64.06
-52.35
-37.47
-21.67
-6.81
5.94
16.18
23.95
29.45
33.02
35.07
36.16
36.76
37.16
37.37
37.14
36.22
34.57
32.40
30.08
27.98
26.28
24.95
23.82
22.65
21.20
19.25
16.67
13.45
9.74
5.79
1.79
-2.21
-6.43
-11.28
-17.19
-24.36
-32.64
-41.41
-49.58
-55.75
-58.43
-56.42
-49.27
-37.51
-22.60
-6.52
8.83
22.14
32.91
41.26
47.55
52.06
54.91
56.18
56.11
55.18
53.95
52.86
51.91
50.81
49.10
46.58
43.42
40.18
37.49
35.69
34.57
33.46
31.48
27.92
22.61
15.89
8.54
1.34
-5.07
-10.49
-15.10
-19.35
-23.86
-29.24
-35.94
-43.99
-52.94
-61.57
-68.20
-70.99
-68.58
-60.56
-47.72
-31.77
-14.82
1.26
15.25
26.63
35.33
41.54
45.46
47.36
47.58
46.54
44.69
42.45
40.14
38.03
36.33
35.11
34.28
33.57
32.58
31.02
28.88
26.45
24.13
22.18
20.41
18.32
15.29
10.90
5.23
-1.23
-7.79
-13.88
-19.24
-24.03
-28.69
-33.80
-39.82
-46.97
-54.98
-63.04
-69.83
-73.79
-73.57
-68.48
-58.73
-45.48
-30.50
-15.73
-2.79
7.37
14.48
18.87
21.10
21.70
21.02
19.24
16.54
13.20
9.72
6.56
4.02
2.06
0.26
-1.85
-4.63
-8.08
-11.96
-15.96
-19.89
-23.85
-28.08
-32.86
-38.28
-44.33
-50.92
-58.10
-65.93
-74.33
-82.75
-90.06
-94.79
-95.59
-91.61
-82.75
-69.47
-52.51
-32.65
-10.64
12.71
36.44
59.58
81.31
101.12
118.84
134.42
147.74
158.61
166.89
172.57
175.95
177.50
177.90
177.99
178.73
181.14
185.88
192.86
200.98
208.20
212.00
210.13
201.22
185.08
162.60
135.38
105.31
74.20
43.61
14.71
-11.77
-35.50
-56.59
-75.48
-92.80
-109.17
-124.83
-139.45
-151.95
-160.73
-164.23
-161.48
-152.59
-138.82
-122.20
-104.96
-88.88
-74.94
-63.38
-53.93
-46.19
-39.82
-34.54
-30.17
-26.44
-23.16
-20.16
-17.47
-15.20
-13.51
-12.44
-11.87
-11.50
-11.03
-10.34
-9.53
-8.96
-9.07
-10.16
-12.27
-15.23
-18.67
-22.27
-25.91
-29.65
-33.76
-38.58
-44.41
-51.25
-58.67
-65.67
-70.75
-72.32
-69.22
-61.21
-49.15
-34.68
-19.67
-5.56
6.87
17.43
26.10
32.72
37.01
38.77
38.22
36.03
33.16
30.43
28.31
26.84
25.80
24.97
24.36
24.09
24.35
25.13
26.20
27.08
27.14
25.80
22.68
17.69
11.13
3.62
-4.07
-11.28
-17.56
-22.82
-27.39
-31.82
-36.78
-42.71
-49.57
-56.60
-62.43
-65.32
-63.85
-57.34
-46.26
-32.10
-16.90
-2.54
9.67
19.26
26.42
31.63
35.37
37.94
39.48
40.01
39.57
38.28
36.40
34.31
32.35
30.77
29.56
28.46
27.17
25.54
23.74
22.14
21.08
20.54
19.98
18.56
15.49
10.50
3.97
-3.19
-9.94
-15.55
-19.78
-22.90
-25.50
-28.29
-31.88
-36.61
-42.42
-48.80
-54.75
-58.97
-60.14
-57.33
-50.30
-39.65
-26.68
-13.03
-0.30
10.39
18.45
23.89
27.04
28.34
28.26
27.18
25.49
23.58
21.80
20.31
19.05
17.77
16.21
14.33
12.41
10.94
10.43
11.04
12.45
13.88
14.44
13.50
10.91
7.09
2.71
-1.58
-5.43
-8.90
-12.31
-16.09
-20.69
-26.44
-33.42
-41.31
-49.20
-55.65
-58.96
-57.75
-51.46
-40.69
-27.02
-12.46
1.21
12.84
22.03
28.79
33.31
35.72
36.11
34.73
32.09
28.89
25.89
23.66
22.39
21.96
21.97
22.02
21.78
21.18
20.33
19.42
18.57
17.70
16.52
14.59
11.62
7.51
2.51
-2.82
-7.88
-12.20
-15.70
-18.63
-21.54
-25.06
-29.72
-35.67
-42.65
-49.86
-56.06
-59.82
-59.87
-55.51
-46.83
-34.71
-20.64
-6.31
6.78
17.60
25.70
31.16
34.41
36.02
36.51
36.21
35.30
33.91
32.22
30.48
28.89
27.51
26.22
24.79
23.06
21.10
19.16
17.55
16.42
15.65
14.83
13.44
11.08
7.54
2.94
-2.35
-7.83
-12.96
-17.35
-20.88
-23.78
-26.53
-29.71
-33.77
-38.90
-44.99
-51.59
-57.91
-62.87
-65.22
-63.78
-57.89
-47.63
-34.04
-18.83
-3.96
8.94
18.95
25.93
30.31
32.77
33.97
34.38
34.29
33.81
32.98
31.79
30.27
28.52
26.74
25.10
23.72
22.55
21.40
20.07
18.42
16.51
14.40
12.16
9.70
6.86
3.48
-0.48
-4.86
-9.37
-13.71
-17.67
-21.16
-24.22
-27.06
-29.94
-33.29
-37.51
-42.81
-49.06
-55.56
-61.10
-64.28
-63.89
-59.35
-50.96
-39.80
-27.33
-15.04
-4.01
5.17
12.33
17.59
21.14
23.20
23.95
23.66
22.59
21.08
19.43
17.86
16.40
14.98
13.46
11.84
10.29
9.10
8.62
8.97
10.01
11.30
12.26
12.36
11.27
8.94
5.51
1.32
-3.28
-7.90
-12.28
-16.27
-19.91
-23.40
-27.07
-31.24
-36.06
-41.34
-46.43
-50.31
-51.68
-49.45
-43.15
-33.09
-20.40
-6.76
6.13
17.01
25.25
30.86
34.24
35.87
36.12
35.20
33.24
30.49
27.37
24.38
21.94
20.20
19.02
18.11
17.21
16.30
15.64
15.49
15.98
16.85
17.48
17.16
15.31
11.77
6.92
1.46
-3.82
-8.37
-12.11
-15.39
-18.88
-23.26
-28.90
-35.67
-42.86
-49.27
-53.56
-54.49
-51.31
-43.93
-33.08
-20.07
-6.55
5.86
16.01
23.34
27.90
30.22
31.01
30.93
30.39
29.56
28.46
27.08
25.48
23.77
22.13
20.64
19.28
18.02
16.79
15.59
14.47
13.50
12.62
11.60
10.07
7.66
4.25
-0.02
-4.74
-9.42
-13.69
-17.47
-20.89
-24.28
-27.98
-32.33
-37.55
-43.61
-50.05
-55.88
-59.72
-60.16
-56.28
-48.08
-36.57
-23.41
-10.29
1.58
11.64
19.83
26.35
31.31
34.73
36.68
37.32
37.01
36.11
34.97
33.78
32.65
31.55
30.48
29.44
28.35
27.14
25.76
24.19
22.54
20.88
19.25
17.46
15.16
12.01
7.87
2.93
-2.35
-7.43
-11.92
-15.78
-19.24
-22.76
-26.82
-31.80
-37.87
-44.92
-52.43
-59.43
-64.53
-66.26
-63.47
-55.84
-44.08
-29.74
-14.80
-1.00
10.54
19.43
25.88
30.33
33.23
34.84
35.36
35.04
34.20
33.24
32.43
31.84
31.29
30.51
29.33
27.77
26.12
24.72
23.83
23.40
23.10
22.40
20.76
17.88
13.72
8.66
3.35
-1.45
-5.05
-7.11
-7.86
-7.99
-8.59
-10.76
-15.27
-22.23
-31.09
-40.75
-49.94
-57.48
-62.46
-64.39
-63.08
-58.69
-51.61
-42.47
-31.93
-20.65
-9.24
1.71
11.60
19.83
25.88
29.55
30.95
30.58
29.05
26.90
24.47
21.91
19.35
17.05
15.38
14.58
14.68
15.36
16.12
16.49
16.21
15.30
13.94
12.34
10.56
8.53
6.12
3.25
-0.06
-3.69
-7.51
-11.48
-15.69
-20.42
-26.02
-32.70
-40.29
-48.13
-55.14
-59.99
-61.57
-59.28
-53.13
-43.74
-32.04
-19.16
-6.16
6.04
16.70
25.37
31.86
36.22
38.67
39.49
38.89
36.99
33.83
29.50
24.18
18.27
12.35
7.13
3.26
1.15
0.87
2.13
4.39
6.92
9.06
10.21
9.91
7.86
3.93
-1.78
-8.97
-17.12
-25.70
-34.25
-42.46
-50.04
-56.55
-61.30
-63.36
-61.88
-56.42
-47.34
-35.75
-23.27
-11.47
-1.44
6.51
12.72
17.85
22.52
27.07
31.47
35.38
38.29
39.75
39.45
37.34
33.69
29.04
24.08
19.52
15.89
13.40
12.07
11.71
12.07
12.80
13.53
13.85
13.38
11.85
9.20
5.52
0.96
-4.46
-10.84
-18.37
-26.99
-36.16
-44.71
-51.05
-53.56
-51.20
-43.80
-32.19
-17.92
-2.79
11.53
23.76
33.13
39.34
42.43
42.82
41.18
38.25
34.76
31.23
27.95
25.05
22.62
20.74
19.48
18.77
18.43
18.16
17.65
16.66
15.07
12.78
9.78
6.11
1.92
-2.48
-6.73
-10.60
-14.16
-17.74
-21.94
-27.28
-33.91
-41.38
-48.62
-54.11
-56.38
-54.40
-47.92
-37.59
-24.70
-10.86
2.41
14.03
23.42
30.43
35.27
38.25
39.73
40.04
39.46
38.21
36.51
34.56
32.63
30.97
29.81
29.17
28.95
28.91
28.75
28.23
27.21
25.69
23.72
21.34
18.57
15.41
11.85
7.92
3.68
-0.79
-5.39
-10.10
-14.93
-19.99
-25.46
-31.51
-38.24
-45.52
-52.84
-59.22
-63.32
-63.78
-59.70
-51.07
-38.79
-24.57
-10.27
2.60
13.18
21.32
27.35
31.70
34.67
36.32
36.62
35.65
33.67
31.21
28.76
26.69
25.06
23.70
22.27
20.62
18.79
17.03
15.56
14.44
13.44
12.24
10.53
8.18
5.24
1.84
-1.92
-5.98
-10.24
-14.51
-18.54
-22.10
-25.10
-27.67
-30.17
-33.06
-36.75
-41.44
-46.89
-52.33
-56.52
-58.05
-55.80
-49.31
-39.07
-26.31
-12.63
0.50
12.03
21.43
28.54
33.46
36.41
37.76
38.03
37.73
37.26
36.82
36.44
36.12
35.89
35.84
36.03
36.34
36.50
36.18
35.15
33.37
30.94
28.03
24.71
21.04
17.06
12.93
8.85
4.97
1.33
-2.24
-5.92
-9.81
-13.77
-17.44
-20.43
-22.59
-24.11
-25.59
-27.80
-31.37
-36.37
-42.16
-47.48
-50.73
-50.53
-46.15
-37.74
-26.29
-13.30
-0.35
11.34
21.02
28.42
33.60
36.75
38.11
37.97
36.69
34.73
32.54
30.54
28.97
27.89
27.16
26.59
26.04
25.46
24.89
24.34
23.71
22.81
21.40
19.32
16.54
13.22
9.63
6.07
2.75
-0.29
-3.10
-5.82
-8.60
-11.52
-14.49
-17.32
-19.79
-21.77
-23.36
-24.89
-26.90
-29.81
-33.78
-38.45
-43.01
-46.32
-47.26
-45.11
-39.70
-31.54
-21.62
-11.16
-1.36
6.94
13.23
17.44
19.70
20.29
19.59
18.03
16.10
14.25
12.80
11.89
11.42
11.11
10.68
10.02
9.20
8.48
8.07
8.04
8.21
8.29
7.96
7.08
5.67
3.86
1.81
-0.39
-2.66
-4.98
-7.32
-9.65
-11.99
-14.43
-17.07
-19.96
-23.06
-26.31
-29.67
-33.17
-36.81
-40.33
-43.06
-44.04
-42.27
-37.21
-29.11
-19.05
-8.58
0.85
8.31
13.59
17.05
19.20
20.41
20.81
20.37
19.16
17.42
15.46
13.51
11.63
9.69
7.50
5.07
2.63
0.62
-0.47
-0.29
1.29
4.11
7.74
11.43
14.22
15.08
13.22
8.40
1.07
-7.70
-16.55
-24.27
-30.21
-34.23
-36.62
-37.76
-37.91
-37.14
-35.35
-32.50
-28.51
-23.38
-17.18
-10.06
-2.33
5.47
12.62
18.40
22.28
24.13
24.17
22.91
20.87
18.45
15.95
13.57
11.56
10.18
9.61
9.81
10.51
11.24
11.55
11.21
10.29
9.08
7.84
6.62
5.16
3.05
-0.01
-3.96
-8.38
-12.59
-15.94
-18.10
-19.26
-19.94
-20.79
-22.22
-24.15
-26.06
-27.20
-26.88
-24.78
-20.98
-15.82
-9.61
-2.51
5.48
14.23
23.22
31.42
37.49
40.32
39.48
35.48
29.58
23.32
17.98
14.19
11.98
10.92
10.53
10.48
10.63
10.91
11.18
11.22
10.68
9.35
7.10
4.08
0.56
-3.10
-6.60
-9.77
-12.60
-15.31
-18.16
-21.49
-25.55
-30.43
-35.91
-41.36
-45.80
-48.07
-47.25
-42.94
-35.50
-25.99
-15.75
-6.06
2.30
9.04
14.32
18.35
21.32
23.26
24.17
24.16
23.51
22.65
21.99
21.79
22.08
22.69
23.31
23.53
23.07
21.79
19.82
17.57
15.62
14.50
14.49
15.41
16.64
17.36
16.83
14.66
10.95
6.07
0.50
-5.45
-11.69
-18.24
-25.13
-32.19
-39.08
-45.25
-50.03
-52.71
-52.66
-49.53
-43.41
-34.97
-25.34
-15.89
-7.70
-1.35
3.31
6.95
10.42
14.34
18.87
23.74
28.31
31.94
34.07
34.40
32.95
30.07
26.36
22.59
19.54
17.81
17.69
19.07
21.47
24.19
26.44
27.55
27.12
25.02
21.44
16.78
11.53
6.11
0.91
-3.90
-8.27
-12.24
-15.91
-19.45
-22.95
-26.45
-29.92
-33.32
-36.70
-40.22
-43.95
-47.68
-50.77
-52.25
-51.13
-46.84
-39.48
-29.88
-19.26
-8.84
0.48
8.22
14.25
18.60
21.39
22.81
23.13
22.67
21.72
20.50
19.12
17.74
16.55
15.78
15.58
16.00
16.87
17.96
19.04
19.91
20.43
20.46
19.92
18.71
16.84
14.44
11.74
8.99
6.31
3.72
1.10
-1.66
-4.55
-7.43
-10.12
-12.50
-14.68
-16.98
-19.74
-23.24
-27.57
-32.48
-37.55
-42.16
-45.53
-46.86
-45.47
-41.01
-33.63
-24.14
-13.69
-3.60
5.03
11.61
16.02
18.56
19.69
19.82
19.29
18.37
17.34
16.50
16.10
16.31
17.06
18.12
19.14
19.88
20.21
20.19
19.95
19.57
19.02
18.28
17.30
16.08
14.64
12.92
10.74
7.91
4.33
0.13
-4.31
-8.52
-12.10
-14.93
-17.17
-19.16
-21.26
-23.76
-26.84
-30.55
-34.74
-39.00
-42.65
-44.74
-44.33
-40.83
-34.31
-25.53
-15.77
-6.36
1.73
8.05
12.69
15.91
17.97
18.98
18.96
18.02
16.43
14.62
13.07
12.09
11.74
11.82
11.98
11.89
11.45
10.76
10.09
9.74
9.75
9.90
9.66
8.51
6.11
2.53
-1.76
-6.12
-10.01
-13.18
-15.76
-18.11
-20.68
-23.87
-27.89
-32.71
-37.92
-42.74
-46.05
-46.78
-44.17
-38.16
-29.43
-19.16
-8.70
0.89
8.99
15.38
20.13
23.38
25.22
25.85
25.49
24.46
23.09
21.60
20.09
18.57
17.03
15.59
14.39
13.59
13.23
13.18
13.20
13.01
12.46
11.46
9.96
7.76
4.65
0.51
-4.49
-9.80
-14.72
-18.73
-21.78
-24.38
-27.39
-31.46
-36.72
-42.56
-47.72
-50.74
-50.41
-46.19
-38.34
-27.84
-16.17
-4.84
4.92
12.46
17.71
21.01
22.89
23.88
24.37
24.65
24.93
25.33
25.89
26.45
26.75
26.47
25.37
23.44
20.96
18.43
16.36
15.16
14.83
15.03
15.10
14.33
12.31
8.98
4.73
0.14
-4.25
-8.20
-11.81
-15.37
-19.21
-23.53
-28.41
-33.77
-39.40
-44.80
-49.23
-51.70
-51.27
-47.31
-39.86
-29.72
-18.18
-6.74
3.41
11.55
17.61
21.93
25.08
27.58
29.72
31.55
32.94
33.67
33.66
33.04
32.03
30.92
29.87
28.88
27.91
26.86
25.76
24.66
23.58
22.40
20.89
18.74
15.83
12.23
8.21
4.14
0.27
-3.26
-6.46
-9.44
-12.31
-15.21
-18.27
-21.66
-25.61
-30.30
-35.74
-41.65
-47.35
-51.77
-53.74
-52.30
-47.09
-38.48
-27.59
-15.90
-4.88
4.49
11.80
17.21
21.21
24.30
26.75
28.63
29.79
30.12
29.64
28.64
27.55
26.77
26.57
26.92
27.58
28.25
28.65
28.67
28.29
27.59
26.64
25.47
24.11
22.51
20.60
18.29
15.51
12.25
8.61
4.76
0.86
-3.00
-6.79
-10.51
-14.05
-17.24
-19.93
-22.10
-24.04
-26.27
-29.42
-33.88
-39.53
-45.57
-50.66
-53.31
-52.32
-47.24
-38.59
-27.66
-16.13
-5.53
3.20
9.81
14.62
18.16
20.90
23.07
24.68
25.73
26.28
26.52
26.64
26.80
26.99
27.11
27.10
27.01
26.97
27.17
27.65
28.25
28.61
28.34
27.16
25.06
22.27
19.21
16.24
13.52
11.03
8.56
5.89
2.94
-0.21
-3.37
-6.31
-8.98
-11.43
-13.83
-16.35
-19.13
-22.26
-25.85
-30.04
-34.85
-40.07
-45.05
-48.79
-50.17
-48.31
-42.96
-34.61
-24.34
-13.49
-3.25
5.50
12.34
17.16
20.12
21.56
21.88
21.54
20.89
20.15
19.36
18.47
17.50
16.54
15.80
15.44
15.51
15.83
16.15
16.20
15.85
15.16
14.29
13.37
12.39
11.17
9.42
6.87
3.43
-0.74
-5.23
-9.57
-13.39
-16.61
-19.45
-22.33
-25.63
-29.56
-34.06
-38.75
-43.00
-45.96
-46.74
-44.57
-39.13
-30.76
-20.41
-9.48
0.62
8.87
14.88
18.82
21.20
22.51
23.03
22.84
21.97
20.52
18.74
16.97
15.52
14.55
14.07
14.00
14.32
14.99
15.99
17.13
18.09
18.49
18.05
16.67
14.47
11.64
8.33
4.58
0.46
-3.87
-8.14
-12.09
-15.65
-19.04
-22.75
-27.26
-32.73
-38.76
-44.39
-48.32
-49.35
-46.73
-40.45
-31.23
-20.30
-9.03
1.36
10.09
16.84
21.68
24.85
26.65
27.29
26.93
25.78
24.06
22.12
20.28
18.79
17.75
17.09
16.65
16.30
15.96
15.67
15.45
15.30
15.16
14.83
14.13
12.89
11.04
8.56
5.56
2.24
-1.21
-4.55
-7.61
-10.35
-12.91
-15.64
-18.96
-23.22
-28.52
-34.46
-40.19
-44.54
-46.36
-44.86
-39.83
-31.67
-21.32
-9.99
1.06
10.75
18.37
23.66
26.85
28.47
29.17
29.41
29.38
29.07
28.37
27.29
25.95
24.53
23.12
21.67
19.95
17.86
15.39
12.75
10.16
7.84
5.81
3.98
2.18
0.28
-1.86
-4.29
-7.04
-10.08
-13.32
-16.61
-19.80
-22.82
-25.72
-28.67
-31.92
-35.71
-40.19
-45.21
-50.27
-54.55
-56.99
-56.67
-53.09
-46.40
-37.38
-27.22
-17.19
-8.22
-0.77
5.10
9.56
12.75
14.77
15.72
15.82
15.49
15.21
15.28
15.67
16.02
15.83
14.84
13.27
11.74
10.97
11.38
12.82
14.68
16.06
16.20
14.75
11.78
7.80
3.47
-0.59
-3.99
-6.70
-9.02
-11.44
-14.47
-18.33
-22.94
-27.84
-32.37
-35.80
-37.45
-36.81
-33.59
-27.77
-19.68
-10.05
0.08
9.56
17.42
23.10
26.61
28.41
29.13
29.33
29.32
29.15
28.75
28.05
27.06
25.89
24.71
23.55
22.41
21.28
20.19
19.23
18.51
18.08
17.82
17.53
16.84
15.41
13.00
9.61
5.47
0.98
-3.39
-7.29
-10.67
-13.68
-16.65
-19.95
-23.88
-28.56
-33.90
-39.46
-44.41
-47.67
-48.11
-44.95
-38.14
-28.44
-17.24
-6.10
3.77
11.76
17.94
22.70
26.49
29.52
31.79
33.23
33.86
33.83
33.38
32.78
32.17
31.63
31.16
30.77
30.48
30.26
29.97
29.43
28.45
26.94
24.98
22.78
20.54
18.36
16.17
13.77
10.92
7.50
3.54
-0.75
-5.04
-8.92
-12.11
-14.53
-16.43
-18.28
-20.78
-24.50
-29.68
-36.01
-42.63
-48.25
-51.54
-51.50
-47.75
-40.66
-31.19
-20.57
-9.96
-0.23
8.15
14.91
20.02
23.53
25.62
26.60
26.85
26.78
26.63
26.44
26.12
25.56
24.75
23.87
23.17
22.88
23.12
23.83
24.86
26.02
27.18
28.17
28.73
28.60
27.56
25.57
22.81
19.62
16.19
12.55
8.46
3.69
-1.77
-7.62
-13.35
-18.52
-22.92
-26.71
-30.14
-33.41
-36.61
-39.73
-42.78
-45.83
-48.84
-51.41
-52.77
-51.88
-47.89
-40.53
-30.36
-18.69
-7.13
2.88
10.51
15.58
18.50
19.88
20.29
20.13
19.64
19.07
18.66
18.66
19.20
20.15
21.22
22.12
22.75
23.25
23.87
24.79
25.88
26.77
26.97
26.15
24.25
21.50
18.31
15.06
12.00
9.17
6.46
3.72
0.78
-2.48
-6.09
-9.94
-13.87
-17.66
-21.08
-24.01
-26.41
-28.41
-30.36
-32.71
-35.87
-39.95
-44.52
-48.62
-50.99
-50.46
-46.44
-39.06
-29.27
-18.41
-7.88
1.26
8.50
13.81
17.46
19.84
21.27
21.92
21.88
21.24
20.12
18.76
17.39
16.25
15.43
14.98
14.86
15.01
15.31
15.63
15.75
15.46
14.65
13.30
11.56
9.62
7.64
5.60
3.43
1.00
-1.68
-4.44
-7.04
-9.21
-10.83
-12.00
-12.97
-14.13
-15.90
-18.61
-22.44
-27.34
-32.91
-38.43
-42.89
-45.25
-44.74
-41.16
-34.89
-26.87
-18.18
-9.82
-2.41
3.78
8.78
12.73
15.67
17.59
18.47
18.42
17.68
16.66
15.71
15.04
14.66
14.43
14.17
13.74
13.18
12.56
11.95
11.40
10.89
10.46
10.13
9.86
9.44
8.50
6.67
3.84
0.25
-3.56
-7.03
-9.93
-12.50
-15.36
-19.17
-24.21
-30.23
-36.42
-41.74
-45.12
-45.83
-43.56
-38.46
-31.07
-22.23
-12.85
-3.71
4.56
11.61
17.26
21.43
24.07
25.25
25.14
24.12
22.61
21.04
19.71
18.69
17.94
17.24
16.47
15.53
14.52
13.65
13.15
13.20
13.78
14.59
15.16
14.91
13.46
10.68
6.79
2.27
-2.35
-6.58
-10.15
-13.01
-15.37
-17.64
-20.35
-23.92
-28.46
-33.57
-38.30
-41.42
-41.80
-38.81
-32.65
-24.23
-14.90
-5.99
1.63
7.62
12.19
15.83
18.99
21.97
24.80
27.36
29.52
31.18
32.37
33.06
33.24
32.79
31.62
29.74
27.38
24.90
22.69
20.99
19.71
18.57
17.20
15.31
12.84
9.94
6.80
3.60
0.42
-2.73
-5.83
-8.84
-11.71
-14.47
-17.29
-20.48
-24.43
-29.39
-35.29
-41.63
-47.42
-51.42
-52.46
-49.88
-43.77
-34.96
-24.72
-14.31
-4.64
3.81
10.85
16.41
20.39
22.72
23.54
23.25
22.47
21.77
21.52
21.76
22.24
22.59
22.53
21.92
20.88
19.67
18.58
17.82
17.37
17.07
16.60
15.75
14.46
12.84
11.00
8.95
6.57
3.64
0.11
-3.87
-7.96
-11.77
-15.06
-17.85
-20.28
-22.63
-25.21
-28.35
-32.30
-37.02
-41.94
-45.94
-47.54
-45.45
-39.08
-28.98
-16.70
-4.26
6.57
14.78
20.23
23.52
25.40
26.54
27.27
27.63
27.54
26.86
25.63
23.94
22.02
20.18
18.83
18.37
19.11
21.09
24.01
27.26
30.09
31.80
31.95
30.44
27.46
23.35
18.44
13.02
7.39
1.85
-3.28
-7.73
-11.45
-14.47
-17.00
-19.22
-21.30
-23.38
-25.65
-28.34
-31.70
-35.85
-40.57
-45.30
-49.07
-50.83
-49.66
-45.20
-37.72
-28.13
-17.75
-8.00
0.09
5.96
9.68
11.68
12.58
12.85
12.73
12.24
11.41
10.39
9.45
8.92
8.94
9.41
10.00
10.38
10.32
9.91
9.44
9.19
9.31
9.67
9.94
9.67
8.49
6.24
2.97
-0.93
-4.96
-8.65
-11.74
-14.28
-16.59
-19.13
-22.23
-25.97
-30.14
-34.21
-37.44
-39.02
-38.26
-34.78
-28.62
-20.30
-10.72
-0.99
7.82
14.91
19.90
22.80
23.99
24.03
23.42
22.50
21.37
20.01
18.39
16.66
15.02
13.72
12.89
12.46
12.29
12.27
12.46
12.96
13.76
14.56
14.86
14.17
12.23
9.15
5.31
1.17
-2.95
-6.90
-10.61
-13.91
-16.55
-18.41
-19.72
-21.10
-23.26
-26.58
-30.68
-34.45
-36.46
-35.60
-31.56
-24.97
-16.99
-8.83
-1.33
5.16
10.64
15.25
19.02
21.94
23.97
25.11
25.43
25.07
24.22
23.11
22.03
21.23
20.82
20.70
20.63
20.30
19.57
18.54
17.39
16.30
15.23
13.89
11.90
9.03
5.34
1.21
-2.84
-6.45
-9.56
-12.42
-15.47
-19.11
-23.59
-28.95
-35.08
-41.53
-47.61
-52.26
-54.36
-53.01
-47.84
-39.27
-28.46
-16.94
-6.23
2.66
9.37
14.14
17.53
20.14
22.36
24.29
25.80
26.73
27.01
26.75
26.21
25.68
25.31
25.08
24.90
24.67
24.37
24.06
23.73
23.24
22.35
20.83
18.66
16.13
13.64
11.52
9.79
8.12
6.03
3.13
-0.69
-5.22
-10.13
-15.26
-20.69
-26.69
-33.54
-41.14
-48.97
-56.02
-60.98
-62.57
-60.00
-53.17
-42.85
-30.50
-17.89
-6.58
2.43
8.95
13.39
16.53
19.01
21.12
22.76
23.56
23.26
21.89
19.92
17.96
16.53
15.86
15.80
16.05
16.33
16.61
17.05
17.78
18.78
19.72
20.07
19.29
17.04
13.31
8.49
3.08
-2.31
-7.26
-11.50
-14.88
-17.36
-18.95
-19.88
-20.65
-21.95
-24.45
-28.38
-33.23
-37.72
-40.28
-39.58
-35.11
-27.41
-17.76
-7.63
1.88
10.31
17.73
24.32
30.07
34.63
37.47
38.23
36.93
34.12
30.63
27.31
24.67
22.89
21.89
21.45
21.40
21.59
21.86
22.01
21.75
20.83
19.10
16.55
13.28
9.49
5.42
1.23
-2.92
-6.93
-10.73
-14.22
-17.42
-20.38
-23.19
-26.05
-29.20
-32.88
-37.29
-42.48
-48.25
-54.05
-58.95
-61.79
-61.56
-57.74
-50.54
-40.98
-30.44
-20.36
-11.76
-5.19
-0.78
1.57
2.11
1.17
-0.76
-3.00
-4.81
-5.65
-5.34
-4.12
-2.59
-1.39
-0.94
-1.29
-2.15
-3.10
-3.78
-4.12
-4.26
-4.49
-5.09
-6.20
-7.81
-9.66
-11.15
-11.26
-8.80
-2.85
6.79
19.41
33.58
47.87
61.35
73.82
85.38
95.86
104.46
109.93
111.25
108.31
102.20
94.80
88.03
83.13
80.40
79.36
79.12
78.86
77.89
75.80
72.44
67.97
62.84
57.78
53.68
51.29
51.00
52.70
55.68
58.86
61.00
61.15
58.87
54.54
49.17
44.12
40.68
39.72
41.41
45.27
50.26
54.94
57.92
58.04
54.74
48.15
38.99
28.26
16.81
5.20
-6.41
-18.02
-29.58
-41.01
-52.22
-63.34
-74.67
-86.50
-98.85
-111.32
-123.12
-133.34
-141.16
-145.93
-147.19
-144.61
-138.05
-127.74
-114.41
-99.28
-83.89
-69.64
-57.49
-47.75
-40.16
-34.25
-29.64
-26.28
-24.38
-24.21
-25.73
-28.45
-31.55
-34.10
-35.49
-35.62
-34.80
-33.58
-32.40
-31.46
-30.73
-30.19
-29.84
-29.85
-30.35
-31.32
-32.52
-33.51
-33.93
-33.62
-32.78
-31.82
-31.18
-31.10
-31.52
-32.17
-32.75
-33.08
-33.24
-33.56
-34.44
-36.29
-39.23
-42.97
-46.80
-49.59
-50.11
-47.39
-41.04
-31.47
-19.78
-7.47
4.00
13.57
20.86
26.00
29.43
31.60
32.78
33.08
32.59
31.49
30.09
28.73
27.69
27.02
26.63
26.31
25.92
25.40
24.83
24.28
23.80
23.39
22.99
22.51
21.74
20.49
18.55
15.83
12.43
8.57
4.51
0.37
-3.77
-7.98
-12.31
-16.71
-21.18
-25.72
-30.40
-35.29
-40.23
-44.68
-47.78
-48.50
-46.05
-40.24
-31.56
-21.08
-10.11
0.17
9.00
16.09
21.44
25.14
27.29
27.90
27.06
25.11
22.55
19.98
17.81
16.14
14.88
13.86
13.01
12.42
12.31
12.76
13.63
14.48
14.77
13.97
11.85
8.53
4.43
0.21
-3.57
-6.53
-8.70
-10.35
-11.98
-14.09
-17.00
-20.86
-25.52
-30.50
-34.97
-37.81
-37.95
-34.70
-28.05
-18.78
-8.23
2.14
11.18
18.29
23.40
26.75
28.69
29.44
29.18
28.06
26.26
24.03
21.72
19.62
17.98
16.89
16.36
16.28
16.49
16.88
17.32
17.64
17.65
17.16
15.95
13.90
11.00
7.35
3.19
-1.24
-5.69
-10.01
-14.26
-18.70
-23.69
-29.52
-36.08
-42.70
-48.14
-50.94
-49.89
-44.56
-35.42
-23.78
-11.25
0.70
11.13
19.63
26.18
30.94
34.03
35.52
35.53
34.36
32.45
30.32
28.35
26.73
25.44
24.37
23.43
22.67
22.19
22.07
22.25
22.44
22.23
21.14
18.84
15.21
10.42
4.89
-0.77
-5.93
-10.05
-12.93
-14.76
-16.13
-17.89
-20.89
-25.61
-31.85
-38.71
-44.67
-48.10
-47.72
-43.03
-34.47
-23.27
-11.07
0.56
10.52
18.30
23.94
27.73
30.11
31.38
31.73
31.31
30.32
29.01
27.69
26.57
25.67
24.88
23.98
22.87
21.61
20.40
19.47
18.93
18.67
18.41
17.83
16.71
14.92
12.46
9.38
5.81
1.94
-1.93
-5.53
-8.71
-11.54
-14.32
-17.46
-21.32
-25.98
-31.11
-36.03
-39.86
-41.67
-40.69
-36.58
-29.44
-19.92
-9.00
2.15
12.44
21.04
27.48
31.58
33.47
33.45
31.97
29.60
26.94
24.55
22.84
21.93
21.73
21.93
22.24
22.38
22.21
21.66
20.67
19.27
17.51
15.53
13.52
11.69
10.06
8.51
6.72
4.39
1.37
-2.24
-6.07
-9.72
-12.84
-15.41
-17.68
-20.17
-23.38
-27.67
-32.90
-38.41
-43.12
-45.75
-45.25
-41.18
-33.79
-24.02
-13.15
-2.52
6.84
14.31
19.69
23.10
24.94
25.70
25.87
25.82
25.74
25.53
25.04
24.20
23.13
22.17
21.63
21.69
22.25
22.98
23.48
23.41
22.67
21.34
19.66
17.95
16.37
14.94
13.41
11.40
8.57
4.79
0.26
-4.62
-9.36
-13.60
-17.10
-19.81
-21.79
-23.29
-24.76
-26.78
-29.76
-33.63
-37.59
-40.17
-39.81
-35.47
-27.17
-15.98
-3.68
7.86
17.26
23.86
27.67
29.11
28.79
27.28
25.02
22.37
19.61
17.05
14.94
13.59
13.15
13.63
14.87
16.53
18.26
19.72
20.61
20.86
20.50
19.66
18.50
17.08
15.35
13.14
10.33
6.90
3.03
-0.96
-4.77
-8.23
-11.34
-14.23
-17.12
-20.19
-23.65
-27.63
-32.11
-36.77
-40.93
-43.52
-43.53
-40.29
-33.78
-24.68
-14.15
-3.48
6.28
14.41
20.61
24.79
27.04
27.60
26.81
25.14
23.12
21.22
19.76
18.90
18.64
18.85
19.35
19.85
20.08
19.84
19.06
17.86
16.44
15.00
13.65
12.22
10.45
8.04
4.90
1.19
-2.74
-6.47
-9.75
-12.53
-15.02
-17.46
-20.06
-22.89
-25.98
-29.29
-32.70
-36.00
-38.80
-40.46
-40.38
-38.02
-33.26
-26.46
-18.32
-9.72
-1.49
5.77
11.71
16.11
18.90
20.04
19.62
17.92
15.43
12.75
10.49
9.03
8.45
8.56
8.98
9.36
9.49
9.37
9.12
8.91
8.84
8.86
8.77
8.32
7.26
5.57
3.36
0.90
-1.49
-3.63
-5.51
-7.35
-9.43
-11.99
-15.11
-18.74
-22.69
-26.75
-30.56
-33.65
-35.33
-34.89
-31.77
-25.88
-17.68
-8.20
1.30
9.67
16.15
20.54
23.00
23.91
23.60
22.38
20.50
18.28
16.10
14.34
13.26
12.87
12.97
13.25
13.46
13.50
13.47
13.54
13.78
14.09
14.16
13.62
12.16
9.70
6.47
2.89
-0.51
-3.38
-5.69
-7.65
-9.62
-11.98
-14.97
-18.70
-23.14
-27.99
-32.65
-36.23
-37.59
-35.84
-30.64
-22.50
-12.67
-2.71
6.03
12.77
17.40
20.24
21.80
22.47
22.59
22.35
21.92
21.44
20.95
20.46
19.89
19.21
18.35
17.28
15.94
14.35
12.64
11.13
10.18
9.97
10.34
10.73
10.46
8.96
6.12
2.26
-1.94
-5.86
-9.13
-11.69
-13.79
-15.74
-17.86
-20.46
-23.77
-27.80
-32.20
-36.19
-38.65
-38.51
-35.14
-28.68
-19.97
-10.32
-1.00
7.11
13.68
18.77
22.55
25.17
26.65
26.94
26.10
24.36
22.07
19.62
17.28
15.15
13.27
11.65
10.31
9.36
8.87
8.90
9.42
10.31
11.39
12.42
13.11
13.13
12.24
10.36
7.67
4.63
1.79
-0.37
-1.68
-2.33
-2.84
-3.88
-6.01
-9.44
-13.78
-18.08
-21.01
-21.25
-17.98
-11.16
-1.56
9.51
20.61
30.60
38.76
44.77
48.59
50.34
50.41
49.39
48.07
47.17
47.11
47.79
48.70
49.18
48.73
47.30
45.29
43.34
42.04
41.76
42.44
43.63
44.61
44.66
43.21
40.09
35.64
30.49
25.50
21.36
18.49
17.05
16.88
17.63
18.69
19.20
18.18
14.85
9.10
1.78
-5.42
-10.58
-12.41
-10.87
-7.27
-3.67
-2.00
-3.21
-7.17
-12.94
-19.69
-27.03
-35.20
-44.57
-55.18
-66.39
-77.08
-86.02
-92.34
-95.67
-96.00
-93.38
-87.82
-79.32
-68.07
-54.55
-39.39
-23.12
-6.02
11.63
29.20
45.34
58.09
65.51
66.57
61.73
52.88
42.59
33.08
25.47
19.70
15.03
10.69
6.36
2.10
-1.94
-5.73
-9.46
-13.21
-16.73
-19.41
-20.49
-19.46
-16.36
-11.82
-6.79
-2.24
1.19
3.25
4.07
4.00
3.44
2.72
2.01
1.39
0.76
0.07
-0.52
-0.69
-0.04
1.69
4.31
7.19
9.36
9.92
8.34
4.60
-0.79
-7.10
-13.58
-19.51
-24.30
-27.47
-28.76
-28.24
-26.40
-24.01
-21.96
-20.86
-21.02
-22.32
-24.49
-27.23
-30.30
-33.49
-36.51
-38.88
-40.04
-39.52
-37.14
-33.17
-28.26
-23.28
-19.05
-16.04
-14.29
-13.41
-12.83
-12.11
-11.19
-10.34
-9.94
-10.28
-11.24
-12.36
-13.07
-12.97
-12.02
-10.53
-9.00
-7.79
-7.05
-6.59
-6.13
-5.43
-4.43
-3.29
-2.27
-1.63
-1.48
-1.77
-2.25
-2.64
-2.75
-2.60
-2.39
-2.37
-2.78
-3.69
-5.09
-6.91
-9.09
-11.50
-13.98
-16.24
-17.88
-18.53
-17.98
-16.18
-13.29
-9.55
-5.24
-0.75
3.49
6.90
9.03
9.67
9.03
7.69
6.33
5.44
5.15
5.24
5.29
5.11
4.71
4.32
4.15
4.20
4.31
4.28
4.12
4.10
4.62
5.98
8.07
10.47
12.55
13.85
14.17
13.66
12.69
11.62
10.72
10.06
9.68
9.49
9.41
9.32
9.05
8.45
7.46
6.15
4.67
3.26
2.09
1.23
0.66
0.23
-0.22
-0.83
-1.55
-2.25
-2.71
-2.82
-2.57
-2.14
-1.88
-2.13
-3.17
-5.13
-7.84
-10.91
-13.81
-16.05
-17.31
-17.62
-17.27
-16.66
-16.18
-15.97
-16.00
-16.13
-16.21
-16.20
-16.13
-16.05
-15.95
-15.81
-15.58
-15.25
-14.78
-14.23
-13.63
-13.01
-12.48
-12.11
-12.01
-12.22
-12.71
-13.34
-13.89
-14.16
-14.01
-13.51
-12.79
-12.05
-11.31
-10.46
-9.25
-7.56
-5.53
-3.53
-2.02
-1.31
-1.40
-1.96
-2.57
-2.90
-2.86
-2.57
-2.19
-1.82
-1.46
-1.05
-0.52
0.07
0.68
1.20
1.53
1.61
1.47
1.19
0.93
0.80
0.84
0.90
0.78
0.35
-0.31
-1.00
-1.39
-1.30
-0.76
-0.10
0.23
-0.18
-1.45
-3.34
-5.26
-6.48
-6.39
-4.81
-2.05
1.20
4.15
6.21
7.19
7.16
6.37
5.05
3.27
0.92
-2.31
-6.87
-13.23
-21.68
-31.90
-42.85
-52.92
-60.34
-63.87
-63.17
-58.92
-52.30
-44.48
-36.13
-27.52
-18.76
-10.18
-2.44
3.74
7.93
10.40
11.92
13.47
15.61
18.18
20.27
20.68
18.42
13.07
4.98
-4.93
-15.34
-24.80
-31.99
-35.92
-36.15
-32.93
-27.14
-20.04
-12.92
-6.78
-2.14
0.92
2.53
2.79
1.72
-0.71
-4.45
-9.27
-14.71
-20.20
-25.11
-28.94
-31.40
-32.41
-32.04
-30.42
-27.62
-23.78
-19.17
-14.34
-10.09
-7.23
-6.34
-7.52
-10.42
-14.37
-18.70
-23.03
-27.38
-32.10
-37.61
-44.20
-51.80
-59.96
-67.75
-74.01
-77.48
-77.13
-72.41
-63.48
-51.20
-36.98
-22.43
-9.12
1.85
9.91
15.13
18.03
19.25
19.35
18.62
17.13
14.92
12.18
9.30
6.81
5.14
4.51
4.86
5.86
7.08
8.07
8.48
8.04
6.55
3.86
-0.03
-4.97
-10.61
-16.45
-22.03
-27.12
-31.92
-37.04
-43.22
-50.83
-59.36
-67.39
-72.82
-73.68
-68.76
-58.15
-43.10
-25.66
-7.94
8.36
22.14
32.90
40.51
45.05
46.81
46.30
44.25
41.49
38.80
36.67
35.28
34.47
33.96
33.49
33.04
32.78
32.98
33.72
34.71
35.42
35.06
33.01
29.07
23.46
16.81
9.84
3.11
-3.23
-9.39
-15.84
-23.07
-31.35
-40.52
-49.89
-58.19
-63.73
-64.88
-60.46
-50.29
-35.28
-17.25
1.54
19.06
33.87
45.34
53.44
58.54
61.12
61.71
60.81
58.94
56.61
54.28
52.27
50.73
49.67
48.91
48.27
47.61
46.88
46.10
45.33
44.54
43.49
41.80
39.05
34.87
29.22
22.37
14.90
7.48
0.61
-5.51
-11.09
-16.64
-22.78
-29.96
-38.19
-46.81
-54.48
-59.41
-59.88
-54.84
-44.32
-29.53
-12.46
4.66
20.05
32.66
42.17
48.73
52.69
54.38
54.21
52.70
50.50
48.31
46.70
45.94
45.90
46.16
46.27
46.00
45.42
44.85
44.57
44.49
44.16
42.88
40.07
35.59
29.82
23.45
17.19
11.42
6.19
1.23
-3.89
-9.57
-16.12
-23.64
-31.79
-39.67
-45.81
-48.52
-46.46
-39.12
-27.16
-12.15
3.91
19.13
32.26
42.70
50.43
55.62
58.50
59.27
58.17
55.62
52.25
48.77
45.84
43.83
42.83
42.55
42.56
42.43
41.93
41.05
39.87
38.47
36.82
34.70
31.76
27.68
22.29
15.72
8.41
1.06
-5.58
-10.97
-15.01
-18.12
-21.21
-25.28
-31.08
-38.78
-47.60
-55.99
-61.91
-63.49
-59.53
-50.04
-36.20
-19.99
-3.57
11.29
23.59
33.06
39.95
44.71
47.69
49.20
49.47
48.73
47.24
45.26
43.04
40.80
38.75
37.04
35.72
34.75
33.96
33.20
32.31
31.24
29.97
28.39
26.30
23.39
19.44
14.42
8.64
2.61
-3.14
-8.26
-12.74
-16.84
-20.93
-25.35
-30.34
-36.02
-42.46
-49.58
-56.97
-63.69
-68.31
-69.17
-65.05
-55.66
-41.96
-25.88
-9.74
4.57
16.02
24.50
30.59
34.99
38.21
40.44
41.65
41.81
41.09
39.84
38.55
37.67
37.39
37.60
37.95
37.98
37.37
36.16
34.59
33.06
31.75
30.56
29.08
26.78
23.29
18.52
12.75
6.47
0.17
-5.81
-11.34
-16.48
-21.36
-26.12
-30.82
-35.58
-40.53
-45.77
-51.12
-55.99
-59.31
-59.76
-56.31
-48.58
-37.16
-23.40
-8.96
4.67
16.48
26.06
33.37
38.57
41.93
43.77
44.43
44.30
43.59
42.43
40.85
38.87
36.63
34.37
32.34
30.74
29.62
28.80
27.98
26.83
25.10
22.67
19.61
16.05
12.18
8.16
4.04
-0.15
-4.36
-8.54
-12.55
-16.22
-19.44
-22.15
-24.38
-26.24
-27.88
-29.57
-31.73
-34.85
-39.36
-45.43
-52.67
-60.03
-66.00
-68.91
-67.52
-61.44
-51.28
-38.43
-24.62
-11.37
0.38
10.21
18.21
24.58
29.53
33.26
35.91
37.65
38.71
39.34
39.72
39.96
40.07
39.95
39.48
38.56
37.15
35.37
33.53
31.95
30.88
30.24
29.58
28.26
25.75
21.96
17.34
12.69
8.70
5.64
3.16
0.62
-2.64
-6.84
-11.77
-16.91
-21.66
-25.63
-28.72
-31.11
-33.18
-35.43
-38.34
-42.31
-47.41
-53.32
-59.19
-63.78
-65.69
-63.76
-57.47
-47.18
-34.10
-20.00
-6.70
4.38
12.60
18.07
21.41
23.42
24.77
25.85
26.80
27.60
28.21
28.65
28.97
29.14
29.06
28.53
27.46
25.98
24.44
23.33
23.06
23.65
24.70
25.50
25.30
23.66
20.55
16.37
11.75
7.33
3.54
0.48
-2.04
-4.42
-7.02
-10.06
-13.50
-17.11
-20.53
-23.47
-25.82
-27.69
-29.39
-31.27
-33.70
-36.93
-41.03
-45.78
-50.60
-54.55
-56.45
-55.21
-50.13
-41.24
-29.34
-15.83
-2.35
9.65
19.20
25.91
29.82
31.32
30.96
29.39
27.30
25.32
23.89
23.20
23.14
23.32
23.29
22.63
21.20
19.15
16.90
14.90
13.50
12.74
12.32
11.80
10.76
9.06
6.80
4.31
1.91
-0.29
-2.39
-4.61
-7.18
-10.10
-13.16
-16.03
-18.42
-20.22
-21.56
-22.64
-23.71
-24.97
-26.59
-28.76
-31.60
-35.08
-38.85
-42.19
-44.07
-43.50
-39.94
-33.44
-24.73
-14.94
-5.23
3.46
10.61
16.06
19.97
22.60
24.24
25.10
25.33
25.03
24.32
23.37
22.38
21.60
21.17
21.11
21.33
21.64
21.88
21.99
22.00
21.98
21.94
21.77
21.22
20.06
18.10
15.38
12.07
8.48
4.91
1.55
-1.54
-4.37
-6.95
-9.22
-11.10
-12.61
-13.89
-15.28
-17.20
-19.95
-23.49
-27.42
-30.94
-33.10
-33.14
-30.75
-26.15
-20.01
-13.22
-6.63
-0.92
3.54
6.57
8.22
8.67
8.24
7.34
6.37
5.70
5.48
5.72
6.30
7.11
8.07
9.19
10.46
11.78
12.89
13.41
12.96
11.41
8.92
5.92
2.98
0.48
-1.49
-3.11
-4.66
-6.36
-8.26
-10.28
-12.41
-14.65
-17.02
-19.45
-21.80
-23.93
-25.83
-27.81
-30.32
-33.79
-38.22
-43.02
-47.11
-49.28
-48.54
-44.53
-37.52
-28.30
-17.96
-7.56
1.92
9.82
15.73
19.61
21.73
22.53
22.51
22.12
21.63
21.13
20.59
19.93
19.07
17.97
16.69
15.39
14.28
13.53
13.16
13.00
12.78
12.22
11.14
9.63
7.92
6.24
4.70
3.24
1.66
-0.24
-2.55
-5.16
-7.90
-10.55
-13.06
-15.49
-18.01
-20.77
-23.83
-27.12
-30.56
-34.02
-37.31
-40.12
-41.83
-41.72
-39.07
-33.61
-25.66
-16.20
-6.58
1.95
8.51
12.85
15.21
16.06
15.92
15.27
14.43
13.66
13.16
13.01
13.24
13.68
14.12
14.42
14.51
14.54
14.67
15.00
15.45
15.77
15.65
14.88
13.43
11.43
9.12
6.70
4.32
2.00
-0.29
-2.57
-4.93
-7.45
-10.18
-13.12
-16.11
-18.93
-21.35
-23.27
-24.89
-26.60
-28.84
-31.87
-35.45
-38.88
-41.10
-41.11
-38.35
-32.91
-25.43
-16.93
-8.40
-0.57
6.17
11.69
16.00
19.17
21.29
22.51
23.02
22.97
22.53
21.81
20.91
19.94
19.09
18.54
18.47
18.96
19.94
21.13
22.12
22.47
21.91
20.43
18.27
15.81
13.39
11.22
9.31
7.54
5.76
3.86
1.79
-0.45
-2.80
-5.13
-7.20
-8.80
-9.78
-10.22
-10.43
-10.95
-12.23
-14.43
-17.22
-19.81
-21.17
-20.35
-16.84
-10.71
-2.61
6.39
15.10
22.55
28.13
31.77
33.74
34.52
34.50
33.85
32.53
30.41
27.44
23.75
19.71
15.73
12.15
9.09
6.47
4.07
1.69
-0.81
-3.46
-6.20
-8.91
-11.52
-13.91
-16.01
-17.82
-19.29
-20.49
-21.47
-22.39
-23.40
-24.64
-26.11
-27.70
-29.21
-30.43
-31.22
-31.64
-31.95
-32.53
-33.80
-35.94
-38.82
-41.85
-44.11
-44.60
-42.52
-37.65
-30.34
-21.48
-12.15
-3.40
3.96
9.52
13.18
15.11
15.71
15.46
14.81
14.07
13.36
12.64
11.86
11.08
10.52
10.42
10.89
11.78
12.75
13.53
14.01
14.38
14.88
15.60
16.22
16.16
14.81
11.93
7.87
3.36
-0.77
-4.01
-6.30
-8.03
-9.85
-12.32
-15.84
-20.46
-25.85
-31.25
-35.57
-37.67
-36.67
-32.32
-25.11
-16.19
-6.91
1.56
8.55
13.90
17.81
20.60
22.56
23.85
24.57
24.80
24.60
24.10
23.39
22.61
21.86
21.16
20.46
19.65
18.62
17.36
15.97
14.68
13.67
12.98
12.46
11.77
10.55
8.47
5.36
1.31
-3.35
-8.07
-12.22
-15.27
-17.06
-17.89
-18.46
-19.64
-22.10
-25.95
-30.57
-34.74
-36.97
-35.91
-30.85
-21.92
-10.11
2.88
15.14
25.03
31.73
35.68
38.51
42.65
50.33
62.69
79.06
97.08
113.57
125.76
132.38
133.90
132.03
128.70
125.09
121.28
116.59
110.10
101.28
90.11
76.92
62.08
45.92
28.84
11.51
-5.07
-19.67
-31.25
-39.21
-43.58
-44.94
-44.18
-42.27
-40.18
-38.68
-38.30
-39.28
-41.48
-44.54
-47.96
-51.29
-54.07
-55.79
-55.83
-53.51
-48.40
-40.57
-30.74
-20.12
-10.06
-1.65
4.53
8.35
10.11
10.19
8.96
6.71
3.56
-0.48
-5.43
-11.15
-17.34
-23.40
-28.65
-32.48
-34.61
-35.19
-34.67
-33.61
-32.34
-30.90
-29.08
-26.61
-23.43
-19.78
-16.11
-12.90
-10.41
-8.57
-7.15
-5.91
-4.78
-3.94
-3.61
-4.05
-5.39
-7.77
-11.35
-16.21
-22.13
-28.42
-33.90
-37.21
-37.28
-33.75
-27.07
-18.31
-8.77
0.41
8.42
14.83
19.52
22.52
23.99
24.17
23.40
22.01
20.44
19.00
18.00
17.62
17.84
18.47
19.14
19.55
19.58
19.40
19.29
19.54
20.06
20.41
19.95
18.09
14.68
10.03
4.87
-0.10
-4.47
-8.25
-11.81
-15.64
-20.09
-25.20
-30.71
-36.10
-40.63
-43.47
-43.87
-41.40
-36.08
-28.46
-19.52
-10.40
-2.15
4.48
9.04
11.35
11.39
9.31
5.38
0.12
-5.75
-11.51
-16.51
-20.35
-22.90
-24.23
-24.49
-23.84
-22.46
-20.55
-18.41
-16.38
-14.78
-13.92
-13.93
-14.94
-16.93
-19.82
-23.31
-26.98
-30.31
-32.84
-34.39
-35.05
-35.21
-35.32
-35.76
-36.74
-38.31
-40.49
-43.18
-46.15
-48.87
-50.52
-50.15
-47.05
-41.03
-32.53
-22.59
-12.43
-3.14
4.63
10.63
14.98
17.97
19.98
21.41
22.60
23.85
25.25
26.72
27.98
28.72
28.76
28.14
27.19
26.32
25.90
26.08
26.77
27.70
28.56
29.13
29.25
28.84
27.78
25.97
23.34
19.95
16.05
11.95
8.00
4.37
1.06
-2.06
-5.16
-8.40
-11.91
-15.83
-20.32
-25.41
-30.88
-36.04
-39.83
-41.10
-39.05
-33.60
-25.45
-15.93
-6.46
1.83
8.40
13.29
16.91
19.75
22.22
24.58
26.98
29.42
31.80
33.91
35.47
36.23
36.13
35.29
34.08
32.87
31.92
31.17
30.28
28.73
26.08
22.20
17.30
11.96
6.83
2.35
-1.40
-4.76
-8.27
-12.43
-17.42
-23.00
-28.57
-33.47
-37.19
-39.59
-40.94
-41.80
-42.87
-44.80
-47.97
-52.31
-57.19
-61.42
-63.53
-62.15
-56.58
-47.07
-34.70
-21.20
-8.23
3.00
11.98
18.81
23.85
27.51
30.03
31.55
32.17
32.10
31.62
31.09
30.79
30.87
31.34
32.08
32.91
33.65
34.10
34.06
33.24
31.35
28.12
23.51
17.60
10.76
3.47
-3.72
-10.40
-16.33
-21.57
-26.40
-31.20
-36.15
-41.07
-45.29
-47.98
-48.43
-46.51
-42.88
-38.79
-35.61
-34.37
-35.35
-38.04
-41.39
-44.07
-44.85
-42.78
-37.39
-28.69
-17.22
-3.98
9.79
22.83
34.13
43.06
49.47
53.60
55.97
57.15
57.59
57.55
57.01
55.86
53.95
51.31
48.18
44.91
41.89
39.30
37.15
35.27
33.50
31.73
29.94
28.17
26.34
24.39
22.29
20.20
18.44
17.34
17.09
17.45
17.90
17.74
16.51
14.17
11.06
7.78
4.73
1.96
-0.88
-4.41
-9.25
-15.82
-24.18
-33.97
-44.39
-54.29
-62.25
-66.88
-67.15
-62.69
-54.00
-42.30
-29.23
-16.48
-5.42
3.08
8.76
11.81
12.81
12.41
11.13
9.20
6.55
2.93
-1.74
-7.16
-12.71
-17.48
-20.69
-22.00
-21.60
-20.20
-18.77
-18.16
-18.87
-21.02
-24.41
-28.74
-33.79
-39.38
-45.32
-51.25
-56.69
-61.12
-64.16
-65.72
-65.91
-64.85
-62.53
-58.66
-52.82
-44.54
-33.49
-19.48
-2.47
17.35
39.41
62.66
85.52
106.09
122.50
133.19
137.20
134.39
125.36
111.36
93.93
74.70
55.03
36.00
18.40
2.82
-10.23
-20.40
-27.65
-32.30
-35.03
-36.68
-37.92
-39.11
-40.23
-41.14
-41.68
-41.92
-42.06
-42.40
-43.22
-44.62
-46.55
-48.75
-50.87
-52.61
-53.81
-54.56
-55.19
-56.21
-58.07
-61.00
-64.80
-68.80
-71.92
-72.93
-70.79
-65.05
-56.01
-44.66
-32.46
-20.77
-10.52
-2.07
4.69
10.10
14.38
17.62
19.79
20.95
21.31
21.26
21.18
21.30
21.69
22.22
22.75
23.19
23.57
23.95
24.35
24.66
24.63
24.08
22.84
20.87
18.23
15.01
11.26
7.05
2.55
-1.99
-6.21
-9.82
-12.73
-15.07
-17.28
-19.91
-23.45
-28.17
-33.89
-39.90
-45.09
-48.13
-47.92
-43.96
-36.58
-26.87
-16.27
-6.16
2.58
9.54
14.75
18.41
20.73
21.93
22.25
22.00
21.53
21.09
20.88
20.92
21.15
21.43
21.65
21.73
21.61
21.39
21.15
20.96
20.75
20.28
19.22
17.29
14.43
10.87
6.99
3.19
-0.25
-3.28
-6.04
-8.77
-11.75
-15.25
-19.45
-24.37
-29.65
-34.55
-38.07
-39.19
-37.26
-32.23
-24.71
-15.73
-6.44
2.19
9.51
15.23
19.26
21.64
22.48
21.99
20.54
18.55
16.47
14.65
13.21
12.14
11.30
10.61
10.08
9.87
10.18
11.07
12.40
13.76
14.62
14.47
13.10
10.52
7.11
3.34
-0.33
-3.56
-6.34
-8.86
-11.52
-14.75
-18.86
-23.85
-29.24
-34.16
-37.53
-38.38
-36.16
-30.92
-23.28
-14.08
-4.35
5.08
13.48
20.36
25.46
28.75
30.44
30.93
30.64
29.93
29.07
28.18
27.35
26.59
25.88
25.11
24.17
23.04
21.81
20.75
20.07
19.76
19.51
18.78
17.09
14.26
10.53
6.35
2.24
-1.50
-4.88
-8.08
-11.39
-15.11
-19.45
-24.50
-30.12
-35.78
-40.57
-43.39
-43.28
-39.81
-33.19
-24.23
-14.05
-3.73
5.91
14.35
21.25
26.45
29.94
31.92
32.80
33.06
33.17
33.34
33.56
33.67
33.47
32.90
31.98
30.77
29.34
27.76
26.15
24.71
23.69
23.20
23.05
22.80
21.83
19.68
16.29
11.99
7.38
3.05
-0.73
-4.01
-7.14
-10.49
-14.32
-18.67
-23.51
-28.64
-33.83
-38.70
-42.57
-44.55
-43.70
-39.38
-31.66
-21.32
-9.75
1.58
11.45
19.31
25.12
29.20
31.93
33.53
34.13
33.94
33.28
32.59
32.25
32.32
32.54
32.50
31.83
30.48
28.72
27.00
25.63
24.65
23.70
22.28
20.04
16.95
13.33
9.64
6.19
3.05
0.04
-3.17
-6.85
-11.12
-15.90
-21.00
-26.19
-31.25
-36.07
-40.66
-45.17
-49.92
-55.28
-61.62
-69.02
-77.11
-85.07
-91.74
-95.92
-96.87
-94.52
-89.63
-83.61
-77.99
-73.98
-71.93
-71.34
-70.94
-69.19
-64.66
-56.38
-44.11
-28.19
-9.42
11.22
32.81
54.66
76.25
97.24
117.20
135.54
151.45
164.03
172.49
176.43
176.00
171.83
164.83
155.85
145.46
133.93
121.48
108.41
95.28
82.76
71.40
61.42
52.64
44.63
36.96
29.30
21.43
13.27
4.78
-3.94
-12.59
-20.71
-27.71
-33.10
-36.57
-38.09
-37.83
-36.14
-33.44
-30.29
-27.29
-25.06
-24.11
-24.78
-27.08
-30.64
-34.83
-38.90
-42.20
-44.42
-45.71
-46.53
-47.48
-48.92
-50.66
-52.06
-52.23
-50.33
-45.75
-38.18
-27.69
-14.85
-0.93
12.02
21.65
26.16
25.03
19.44
11.71
4.32
-1.06
-4.10
-5.44
-5.98
-6.09
-5.41
-3.12
1.49
8.59
17.73
28.01
38.37
47.89
56.04
62.72
68.29
73.28
78.10
82.79
86.95
90.05
91.66
91.80
90.78
89.15
87.23
85.05
82.41
79.04
74.85
70.03
65.00
60.21
56.02
52.59
49.88
47.73
45.94
44.32
42.76
41.24
39.76
38.36
37.05
35.79
34.54
33.30
32.12
31.01
29.95
28.76
27.20
25.05
22.22
18.72
14.69
10.17
5.02
-1.10
-8.58
-17.67
-28.21
-39.66
-51.17
-61.75
-70.54
-76.95
-80.67
-81.74
-80.48
-77.43
-73.33
-68.96
-65.02
-61.99
-60.05
-59.09
-58.82
-58.93
-59.16
-59.30
-59.19
-58.66
-57.54
-55.73
-53.18
-50.04
-46.51
-42.83
-39.22
-35.80
-32.66
-29.83
-27.35
-25.29
-23.67
-22.44
-21.46
-20.51
-19.45
-18.29
-17.16
-16.41
-16.26
-16.78
-17.85
-19.16
-20.50
-21.70
-22.80
-23.92
-25.14
-26.50
-28.07
-29.92
-32.13
-34.66
-37.17
-38.99
-39.26
-37.29
-32.87
-26.37
-18.71
-10.94
-3.93
1.89
6.44
9.87
12.33
13.91
14.66
14.69
14.20
13.46
12.76
12.33
12.27
12.61
13.31
14.29
15.42
16.54
17.50
18.24
18.78
19.11
19.20
18.89
18.05
16.60
14.66
12.43
10.18
8.12
6.36
4.87
3.52
2.11
0.40
-1.73
-4.23
-6.88
-9.31
-11.26
-12.66
-13.83
-15.26
-17.43
-20.47
-24.07
-27.49
-29.78
-30.16
-28.16
-23.85
-17.77
-10.78
-3.90
2.00
6.47
9.49
11.38
12.51
13.13
13.26
12.81
11.77
10.30
8.80
7.70
7.32
7.63
8.43
9.33
10.05
10.42
10.46
10.21
9.73
9.04
8.23
7.42
6.73
6.23
5.78
5.14
4.02
2.27
-0.01
-2.51
-4.90
-7.00
-8.83
-10.59
-12.48
-14.64
-17.08
-19.63
-22.01
-23.77
-24.36
-23.31
-20.33
-15.60
-9.68
-3.43
2.28
6.85
10.10
12.24
13.64
14.61
15.25
15.53
15.27
14.44
13.20
11.87
10.80
10.26
10.26
10.65
11.18
11.69
12.12
12.49
12.80
12.91
12.64
11.84
10.49
8.77
6.96
5.29
3.90
2.79
1.92
1.26
0.80
0.54
0.35
0.06
-0.55
-1.56
-2.88
-4.19
-4.98
-4.70
-2.83
0.92
6.59
13.91
22.35
31.24
39.90
47.76
54.43
59.76
63.75
66.51
68.27
69.37
70.18
71.05
72.15
73.39
74.34
74.38
72.80
69.10
63.13
55.14
45.67
35.37
24.73
14.06
3.38
-7.46
-18.59
-30.05
-41.70
-53.23
-64.19
-74.04
-82.28
-88.55
-92.76
-95.08
-95.98
-95.97
-95.60
-95.19
-94.87
-94.49
-93.75
-92.23
-89.48
-85.12
-78.94
-70.98
-61.67
-51.68
-41.85
-32.87
-25.14
-18.73
-13.45
-9.04
-5.29
-2.12
0.47
2.53
4.15
5.50
6.66
7.67
8.52
9.21
9.84
10.48
11.17
11.87
12.48
12.94
13.19
13.29
13.23
12.96
12.32
11.17
9.38
7.00
4.21
1.31
-1.37
-3.59
-5.28
-6.57
-7.76
-9.27
-11.40
-14.23
-17.57
-21.00
-24.04
-26.27
-27.39
-27.21
-25.60
-22.53
-18.16
-12.87
-7.19
-1.79
2.83
6.42
9.02
10.90
12.32
13.50
14.39
14.87
14.74
13.96
12.69
11.28
10.14
9.59
9.79
10.61
11.83
13.15
14.31
15.13
15.43
15.09
14.03
12.26
9.90
7.16
4.31
1.56
-0.91
-3.09
-5.02
-6.77
-8.40
-9.94
-11.40
-12.84
-14.40
-16.24
-18.50
-21.15
-23.87
-26.13
-27.32
-26.89
-24.61
-20.59
-15.24
-9.13
-2.89
2.94
7.97
11.95
14.89
16.89
18.14
18.81
18.96
18.62
17.76
16.46
14.93
13.47
12.30
11.55
11.16
10.94
10.63
10.09
9.30
8.41
7.62
7.00
6.52
5.95
5.06
3.67
1.85
-0.18
-2.10
-3.70
-5.01
-6.20
-7.58
-9.41
-11.82
-14.78
-18.13
-21.57
-24.74
-27.18
-28.45
-28.14
-26.06
-22.20
-16.84
-10.51
-3.89
2.34
7.57
11.47
13.98
15.31
15.78
15.71
15.30
14.70
13.99
13.30
12.76
12.45
12.41
12.59
12.87
13.18
13.49
13.77
14.00
14.14
14.17
14.10
13.94
13.63
13.03
11.96
10.25
7.88
5.02
1.97
-0.92
-3.45
-5.68
-7.83
-10.23
-13.08
-16.36
-19.87
-23.32
-26.38
-28.79
-30.21
-30.28
-28.62
-25.02
-19.56
-12.75
-5.38
1.67
7.72
12.45
15.87
18.14
19.47
19.99
19.76
18.93
17.74
16.51
15.55
15.09
15.15
15.63
16.37
17.13
17.72
17.95
17.78
17.27
16.54
15.73
14.84
13.76
12.32
10.46
8.34
6.31
4.73
3.72
3.10
2.39
1.09
-1.10
-4.07
-7.51
-10.98
-14.19
-17.05
-19.63
-22.08
-24.48
-26.82
-28.99
-30.77
-31.87
-31.91
-30.48
-27.32
-22.46
-16.28
-9.53
-3.09
2.33
6.42
9.21
11.03
12.25
13.12
13.70
13.94
13.79
13.26
12.46
11.58
10.88
10.59
10.80
11.48
12.40
13.25
13.76
13.80
13.44
12.85
12.18
11.45
10.59
9.48
8.02
6.21
4.14
1.92
-0.32
-2.47
-4.51
-6.48
-8.53
-10.81
-13.44
-16.36
-19.34
-21.99
-23.92
-24.85
-24.66
-23.39
-21.09
-17.82
-13.60
-8.51
-2.80
3.06
8.51
12.97
16.08
17.74
18.18
17.82
17.17
16.67
16.51
16.67
16.94
17.09
16.95
16.54
16.03
15.58
15.29
15.13
15.03
14.89
14.64
14.22
13.55
12.49
10.92
8.86
6.46
3.97
1.63
-0.47
-2.39
-4.25
-6.17
-8.19
-10.26
-12.39
-14.56
-16.73
-18.62
-19.79
-19.68
-17.88
-14.36
-9.54
-4.17
0.96
5.32
8.79
11.58
13.93
15.96
17.58
18.58
18.88
18.55
17.85
17.03
16.33
15.87
15.71
15.90
16.41
17.09
17.65
17.72
17.07
15.72
13.94
12.15
10.62
9.43
8.36
7.08
5.37
3.15
0.59
-2.02
-4.39
-6.35
-7.85
-9.10
-10.43
-12.19
-14.68
-17.96
-21.86
-25.94
-29.59
-32.15
-33.07
-32.04
-29.09
-24.54
-18.93
-12.86
-6.83
-1.21
3.77
7.97
11.26
13.62
15.08
15.81
16.08
16.18
16.30
16.51
16.68
16.63
16.22
15.48
14.56
13.83
13.59
14.02
14.96
16.06
16.79
16.74
15.69
13.76
11.31
8.77
6.49
4.53
2.76
0.94
-1.11
-3.40
-5.70
-7.75
-9.36
-10.63
-11.84
-13.39
-15.56
-18.43
-21.90
-25.70
-29.51
-32.91
-35.37
-36.24
-35.03
-31.51
-25.97
-19.18
-12.12
-5.66
-0.29
3.94
7.20
9.67
11.44
12.49
12.83
12.61
12.09
11.55
11.19
11.04
11.02
11.04
11.07
11.22
11.65
12.46
13.60
14.89
16.02
16.67
16.60
15.75
14.17
12.10
9.77
7.40
5.15
3.07
1.18
-0.55
-2.17
-3.71
-5.20
-6.71
-8.34
-10.11
-12.06
-14.14
-16.27
-18.43
-20.70
-23.21
-25.99
-28.87
-31.34
-32.70
-32.27
-29.67
-25.04
-19.00
-12.45
-6.22
-0.89
3.33
6.55
8.94
10.65
11.74
12.24
12.22
11.84
11.33
10.87
10.55
10.44
10.58
11.09
12.03
13.38
14.94
16.39
17.40
17.75
17.40
16.43
14.94
13.02
10.70
8.06
5.24
2.48
-0.01
-2.14
-3.93
-5.50
-7.01
-8.52
-10.04
-11.58
-13.21
-15.10
-17.42
-20.19
-23.16
-25.81
-27.41
-27.29
-25.12
-21.04
-15.62
-9.68
-3.95
1.13
5.40
8.95
11.83
14.00
15.33
15.74
15.37
14.53
13.67
13.14
13.04
13.20
13.39
13.41
13.27
13.09
12.99
13.02
13.11
13.12
12.98
12.63
12.08
11.30
10.24
8.84
7.08
5.05
2.82
0.51
-1.85
-4.25
-6.77
-9.42
-12.23
-15.20
-18.28
-21.37
-24.16
-26.28
-27.26
-26.75
-24.59
-20.93
-16.10
-10.57
-4.80
0.82
5.96
10.39
13.92
16.44
17.96
18.60
18.56
18.00
17.11
15.98
14.72
13.44
12.28
11.39
10.90
10.83
11.10
11.47
11.61
11.26
10.33
8.96
7.43
5.97
4.66
3.33
1.72
-0.40
-3.06
-6.06
-9.08
-11.85
-14.22
-16.24
-18.08
-19.93
-21.99
-24.38
-27.11
-30.08
-33.01
-35.47
-36.95
-36.98
-35.25
-31.76
-26.85
-21.03
-14.96
-9.20
-4.11
0.21
3.88
7.05
9.85
12.22
14.04
15.08
15.23
14.56
13.33
11.88
10.57
9.58
8.90
8.45
8.02
7.58
7.19
6.99
7.11
7.53
8.07
8.45
8.40
7.81
6.76
5.44
4.11
2.92
1.88
0.91
-0.16
-1.49
-3.28
-5.68
-8.75
-12.43
-16.45
-20.28
-23.28
-24.80
-24.34
-21.81
-17.49
-11.99
-6.08
-0.41
4.62
8.90
12.50
15.54
18.06
20.01
21.35
22.10
22.35
22.25
21.89
21.29
20.45
19.42
18.33
17.42
16.86
16.67
16.70
16.66
16.31
15.48
14.16
12.43
10.44
8.31
6.15
4.04
2.01
0.15
-1.54
-3.08
-4.56
-6.07
-7.72
-9.55
-11.64
-14.03
-16.78
-19.87
-23.15
-26.21
-28.48
-29.30
-28.21
-25.09
-20.28
-14.42
-8.31
-2.58
2.41
6.58
10.04
12.93
15.35
17.28
18.73
19.69
20.27
20.63
20.93
21.28
21.66
21.91
21.83
21.31
20.35
19.22
18.18
17.44
16.95
16.40
15.38
13.64
11.20
8.38
5.61
3.18
1.13
-0.69
-2.47
-4.34
-6.22
-8.00
-9.55
-10.87
-12.04
-13.19
-14.49
-16.12
-18.28
-21.13
-24.64
-28.49
-32.10
-34.68
-35.55
-34.28
-30.90
-25.82
-19.72
-13.31
-7.19
-1.76
2.80
6.39
9.03
10.76
11.72
12.13
12.23
12.29
12.46
12.73
13.02
13.17
13.05
12.60
11.85
10.93
10.04
9.39
9.19
9.46
10.12
10.86
11.35
11.30
10.62
9.41
7.86
6.16
4.41
2.67
0.97
-0.62
-2.07
-3.41
-4.78
-6.30
-8.08
-10.00
-11.91
-13.66
-15.31
-17.13
-19.45
-22.44
-25.95
-29.47
-32.33
-33.87
-33.66
-31.60
-27.84
-22.75
-16.82
-10.62
-4.70
0.55
4.85
8.18
10.66
12.42
13.62
14.34
14.64
14.54
14.09
13.38
12.54
11.76
11.24
11.12
11.45
12.13
12.92
13.50
13.62
13.14
12.14
10.83
9.50
8.43
7.72
7.39
7.29
7.23
7.05
6.60
5.82
4.73
3.32
1.63
-0.32
-2.49
-4.80
-7.14
-9.37
-11.42
-13.30
-15.15
-17.17
-19.57
-22.39
-25.49
-28.51
-30.93
-32.16
-31.80
-29.73
-26.21
-21.74
-16.81
-11.80
-6.84
-2.01
2.57
6.63
9.80
11.79
12.55
12.32
11.47
10.38
9.34
8.42
7.66
7.09
6.77
6.72
6.93
7.26
7.59
7.83
7.93
7.89
7.72
7.41
6.91
6.18
5.22
4.11
2.97
1.91
1.01
0.21
-0.58
-1.50
-2.62
-3.87
-5.12
-6.16
-6.92
-7.45
-7.99
-8.88
-10.42
-12.67
-15.33
-17.79
-19.29
-19.26
-17.42
-13.96
-9.35
-4.25
0.73
5.08
8.52
10.95
12.43
13.19
13.47
13.46
13.25
12.83
12.19
11.38
10.58
10.00
9.79
10.01
10.54
11.22
11.86
12.31
12.54
12.55
12.39
12.06
11.54
10.76
9.61
8.06
6.13
3.90
1.46
-1.04
-3.47
-5.68
-7.60
-9.27
-10.92
-12.89
-15.42
-18.50
-21.76
-24.54
-26.13
-26.02
-24.10
-20.57
-15.97
-10.86
-5.81
-1.24
2.57
5.49
7.61
9.09
10.17
11.04
11.77
12.39
12.87
13.25
13.55
13.85
14.15
14.39
14.52
14.50
14.30
14.00
13.71
13.48
13.33
13.16
12.72
11.77
10.09
7.63
4.57
1.23
-1.97
-4.74
-7.00
-8.87
-10.53
-12.21
-14.04
-16.13
-18.58
-21.41
-24.53
-27.64
-30.24
-31.75
-31.65
-29.67
-25.82
-20.48
-14.20
-7.64
-1.39
4.06
8.45
11.67
13.77
14.92
15.29
15.09
14.51
13.74
12.97
12.35
11.95
11.83
11.93
12.16
12.35
12.32
11.89
11.06
9.90
8.62
7.41
6.35
5.34
4.20
2.71
0.79
-1.51
-4.00
-6.43
-8.61
-10.39
-11.71
-12.60
-13.20
-13.80
-14.85
-16.79
-19.82
-23.70
-27.74
-30.93
-32.32
-31.34
-28.08
-23.14
-17.37
-11.57
-6.24
-1.59
2.33
5.45
7.74
9.18
9.92
10.23
10.41
10.69
11.07
11.41
11.49
11.24
10.75
10.27
10.10
10.39
11.11
12.02
12.82
13.21
13.02
12.25
10.97
9.32
7.38
5.23
2.93
0.58
-1.64
-3.61
-5.27
-6.67
-8.02
-9.50
-11.17
-12.90
-14.42
-15.55
-16.36
-17.19
-18.49
-20.47
-22.95
-25.28
-26.56
-26.07
-23.53
-19.21
-13.78
-8.03
-2.58
2.14
5.92
8.62
10.17
10.56
9.97
8.75
7.43
6.51
6.30
6.77
7.59
8.31
8.58
8.42
8.10
8.03
8.48
9.44
10.61
11.53
11.82
11.37
10.31
8.95
7.54
6.13
4.63
2.93
1.03
-0.92
-2.65
-4.04
-5.17
-6.38
-8.06
-10.49
-13.64
-17.23
-20.85
-24.13
-26.75
-28.46
-28.95
-27.92
-25.20
-20.90
-15.47
-9.59
-3.96
0.92
4.85
7.82
9.92
11.17
11.59
11.20
10.21
8.97
7.91
7.37
7.39
7.77
8.14
8.16
7.69
6.92
6.18
5.82
6.05
6.79
7.74
8.50
8.74
8.20
6.87
4.93
2.72
0.62
-1.14
-2.55
-3.83
-5.35
-7.43
-10.19
-13.46
-16.81
-19.64
-21.38
-21.60
-20.10
-16.91
-12.33
-6.79
-0.90
4.75
9.64
13.37
15.75
16.77
16.58
15.53
13.98
12.36
10.95
9.93
9.29
8.94
8.69
8.46
8.25
8.18
8.36
8.86
9.57
10.22
10.52
10.26
9.39
8.02
6.30
4.33
2.19
-0.10
-2.46
-4.75
-6.79
-8.58
-10.29
-12.28
-14.85
-18.05
-21.55
-24.62
-26.44
-26.34
-24.08
-19.94
-14.58
-8.82
-3.33
1.42
5.24
8.09
10.01
11.11
11.54
11.55
11.38
11.27
11.29
11.44
11.55
11.51
11.31
11.04
10.87
10.90
11.13
11.44
11.68
11.70
11.43
10.90
10.11
9.05
7.58
5.50
2.65
-0.90
-4.82
-8.66
-11.99
-14.61
-16.63
-18.41
-20.41
-22.95
-26.10
-29.59
-33.00
-35.69
-37.05
-36.58
-34.00
-29.45
-23.43
-16.74
-10.22
-4.53
0.05
3.57
6.27
8.41
10.07
11.20
11.63
11.31
10.31
8.91
7.47
6.33
5.75
5.81
6.43
7.35
8.29
9.03
9.49
9.75
9.89
9.95
9.77
9.19
8.05
6.36
4.28
2.03
-0.18
-2.25
-4.18
-6.06
-7.98
-10.07
-12.41
-15.04
-17.85
-20.53
-22.68
-23.79
-23.49
-21.61
-18.20
-13.51
-7.94
-2.00
3.75
8.83
12.92
15.84
17.63
18.47
18.62
18.41
18.12
18.05
18.34
18.97
19.78
20.47
20.78
20.56
19.87
18.98
18.20
17.73
17.48
17.16
16.41
15.05
13.16
11.05
9.05
7.37
5.92
4.44
2.65
0.43
-2.20
-5.11
-8.20
-11.43
-14.83
-18.32
-21.57
-24.09
-25.27
-24.63
-21.94
-17.35
-11.29
-4.40
2.68
9.41
15.36
20.24
23.75
25.73
26.18
25.26
23.30
20.69
17.79
14.81
11.86
9.03
6.37
3.97
1.86
-0.05
-1.88
-3.74
-5.63
-7.38
-8.74
-9.53
-9.78
-9.72
-9.74
-10.16
-11.11
-12.46
-13.93
-15.24
-16.29
-17.16
-18.06
-19.18
-20.56
-22.19
-23.96
-25.77
-27.51
-29.00
-29.93
-29.87
-28.43
-25.34
-20.65
-14.76
-8.26
-1.85
3.91
8.65
12.23
14.68
16.14
16.78
16.73
16.14
15.18
14.14
13.33
12.98
13.08
13.37
13.45
13.03
12.14
11.13
10.46
10.40
10.88
11.51
11.79
11.40
10.34
8.87
7.29
5.74
4.19
2.57
0.78
-1.18
-3.30
-5.60
-8.20
-11.25
-14.80
-18.75
-22.73
-26.23
-28.68
-29.58
-28.64
-25.84
-21.41
-15.82
-9.68
-3.57
2.06
6.95
11.02
14.30
16.80
18.50
19.39
19.51
19.02
18.22
17.49
17.11
17.18
17.64
18.31
18.98
19.49
19.81
19.92
19.84
19.47
18.69
17.41
15.62
13.46
11.10
8.63
6.04
3.19
0.01
-3.42
-6.81
-9.80
-12.16
-13.99
-15.66
-17.65
-20.18
-23.07
-25.74
-27.42
-27.49
-25.72
-22.24
-17.46
-11.87
-6.01
-0.39
4.44
8.04
10.25
11.25
11.61
11.97
12.80
14.13
15.64
16.84
17.35
17.14
16.42
15.53
14.79
14.36
14.26
14.41
14.63
14.65
14.19
13.08
11.36
9.29
7.24
5.45
3.96
2.65
1.27
-0.32
-2.20
-4.39
-6.89
-9.65
-12.52
-15.26
-17.64
-19.59
-21.26
-23.03
-25.24
-27.89
-30.60
-32.68
-33.40
-32.32
-29.44
-25.07
-19.66
-13.63
-7.36
-1.17
4.59
9.50
13.24
15.67
16.92
17.37
17.38
17.30
17.18
16.96
16.57
16.01
15.45
15.13
15.19
15.59
16.12
16.53
16.65
16.52
16.24
16.00
15.77
15.37
14.43
12.69
10.13
7.04
3.94
1.26
-0.83
-2.46
-4.00
-5.76
-7.87
-10.27
-12.81
-15.40
-17.97
-20.35
-22.16
-22.85
-21.86
-18.97
-14.44
-8.98
-3.42
1.44
5.21
7.85
9.55
10.68
11.52
12.28
13.02
13.68
14.15
14.36
14.29
14.07
13.83
13.77
14.00
14.51
15.29
16.27
17.37
18.47
19.40
19.99
20.12
19.80
19.15
18.31
17.35
16.27
14.98
13.45
11.78
10.20
8.97
8.27
8.08
8.25
8.57
8.93
9.33
9.82
10.53
11.61
13.39
16.31
20.86
27.40
35.89
45.82
56.26
66.23
74.97
82.17
87.92
92.49
96.03
98.45
99.42
98.56
95.73
91.28
86.05
81.11
77.45
75.56
75.26
75.89
76.65
76.95
76.64
75.86
74.78
73.37
71.32
68.26
64.09
59.16
54.15
49.75
46.31
43.60
40.93
37.47
32.59
26.13
18.41
10.04
1.68
-6.18
-13.31
-19.69
-25.40
-30.48
-34.94
-38.72
-41.79
-44.12
-45.71
-46.50
-46.45
-45.49
-43.69
-41.27
-38.70
-36.52
-35.21
-34.97
-35.71
-37.08
-38.56
-39.80
-40.70
-41.45
-42.34
-43.52
-44.86
-45.86
-45.95
-44.76
-42.35
-39.24
-36.12
-33.56
-31.69
-30.23
-28.80
-27.19
-25.64
-24.70
-24.90
-26.41
-28.97
-31.97
-34.79
-36.99
-38.47
-39.37
-39.88
-40.16
-40.30
-40.43
-40.70
-41.29
-42.27
-43.38
-44.09
-43.64
-41.36
-36.93
-30.65
-23.30
-15.91
-9.38
-4.13
-0.03
3.47
7.07
11.28
16.26
21.82
27.47
32.61
36.59
38.78
38.58
35.56
29.54
20.75
9.88
-1.92
-13.27
-22.93
-30.10
-34.66
-37.03
-37.93
-37.94
-37.32
-36.13
-34.43
-32.54
-31.18
-31.21
-33.34
-37.82
-44.26
-51.82
-59.49
-66.40
-72.04
-76.36
-79.51
-81.59
-82.49
-81.86
-79.32
-74.85
-68.97
-62.70
-57.21
-53.35
-51.31
-50.57
-50.27
-49.59
-48.14
-45.94
-43.37
-40.79
-38.38
-36.11
-33.86
-31.47
-28.87
-26.14
-23.36
-20.64
-18.03
-15.51
-13.14
-10.94
-8.99
-7.34
-6.14
-5.51
-5.61
-6.55
-8.29
-10.61
-13.13
-15.44
-17.27
-18.64
-19.74
-20.94
-22.41
-24.08
-25.58
-26.37
-25.96
-24.15
-21.03
-16.91
-12.20
-7.24
-2.34
2.24
6.28
9.54
11.95
13.54
14.48
14.95
15.08
14.94
14.52
13.90
13.25
12.72
12.37
12.09
11.69
11.08
10.41
9.94
9.91
10.27
10.67
10.63
9.75
7.95
5.47
2.70
-0.02
-2.55
-4.83
-6.91
-8.73
-10.36
-11.91
-13.69
-15.98
-18.90
-22.14
-25.05
-26.84
-26.84
-24.80
-20.90
-15.66
-9.72
-3.65
2.09
7.16
11.25
14.15
15.77
16.19
15.64
14.51
13.22
12.13
11.47
11.27
11.40
11.68
11.93
12.07
12.12
12.19
12.32
12.53
12.75
12.90
12.91
12.64
11.99
10.80
8.94
6.40
3.40
0.31
-2.47
-4.68
-6.38
-7.85
-9.52
-11.67
-14.31
-17.12
-19.61
-21.32
-21.88
-21.13
-19.07
-15.82
-11.53
-6.46
-1.02
4.27
8.85
12.30
14.41
15.24
15.05
14.18
13.05
12.00
11.28
11.05
11.34
12.03
12.95
13.87
14.57
14.94
14.93
14.64
14.19
13.70
13.19
12.59
11.72
10.48
8.77
6.60
4.13
1.52
-0.99
-3.23
-5.13
-6.72
-8.20
-9.86
-12.00
-14.78
-18.13
-21.67
-24.80
-26.79
-27.03
-25.18
-21.35
-16.02
-9.90
-3.72
1.92
6.63
10.20
12.59
13.86
14.15
13.72
12.87
11.86
10.87
9.93
9.03
8.21
7.60
7.32
7.45
7.96
8.69
9.46
10.07
10.34
10.12
9.34
8.02
6.25
4.24
2.16
0.17
-1.68
-3.43
-5.22
-7.24
-9.71
-12.79
-16.44
-20.26
-23.54
-25.43
-25.28
-22.84
-18.43
-12.75
-6.63
-0.73
4.47
8.82
12.16
14.44
15.65
15.87
15.33
14.34
13.22
12.16
11.17
10.21
9.15
8.03
7.03
6.41
6.45
7.26
8.64
10.15
11.21
11.30
10.23
8.12
5.38
2.48
-0.20
-2.53
-4.58
-6.55
-8.68
-11.15
-14.03
-17.27
-20.66
-23.88
-26.45
-27.88
-27.75
-25.89
-22.36
-17.51
-11.81
-5.73
0.24
5.73
10.45
14.15
16.75
18.27
18.84
18.65
17.87
16.64
15.11
13.47
12.01
10.98
10.54
10.70
11.26
11.95
12.55
12.95
13.08
12.86
12.15
10.82
8.83
6.31
3.55
0.86
-1.55
-3.67
-5.69
-7.80
-10.21
-13.00
-16.18
-19.65
-23.25
-26.61
-29.22
-30.47
-29.89
-27.33
-23.05
-17.62
-11.64
-5.61
0.15
5.50
10.25
14.22
17.27
19.37
20.59
21.12
21.07
20.53
19.58
18.42
17.31
16.58
16.36
16.52
16.69
16.47
15.71
14.58
13.51
12.90
12.86
13.09
13.09
12.32
10.54
7.90
4.82
1.78
-0.91
-3.17
-5.17
-7.20
-9.52
-12.33
-15.70
-19.55
-23.53
-27.02
-29.25
-29.49
-27.41
-23.18
-17.48
-11.20
-5.17
0.18
4.72
8.48
11.52
13.83
15.35
16.14
16.38
16.30
16.10
15.84
15.45
14.85
14.04
13.20
12.58
12.37
12.56
12.89
13.05
12.74
11.94
10.79
9.52
8.28
7.02
5.58
3.80
1.70
-0.51
-2.52
-4.21
-5.67
-7.30
-9.50
-12.52
-16.27
-20.32
-24.01
-26.67
-27.76
-26.96
-24.21
-19.72
-13.94
-7.51
-1.16
4.42
8.77
11.73
13.52
14.48
15.03
15.41
15.60
15.47
14.89
13.82
12.45
11.07
9.97
9.37
9.32
9.78
10.59
11.55
12.41
12.95
12.94
12.20
10.63
8.26
5.29
2.02
-1.19
-4.05
-6.52
-8.78
-11.22
-14.19
-17.86
-22.02
-26.09
-29.25
-30.71
-29.91
-26.71
-21.45
-14.84
-7.74
-0.97
4.94
9.76
13.50
16.32
18.39
19.84
20.74
21.09
20.92
20.27
19.23
17.93
16.60
15.49
14.84
14.76
15.24
16.15
17.25
18.29
18.96
19.00
18.17
16.40
13.74
10.41
6.75
3.14
-0.07
-2.63
-4.47
-5.84
-7.24
-9.31
-12.56
-17.08
-22.43
-27.63
-31.56
-33.25
-32.25
-28.68
-23.10
-16.28
-8.98
-1.83
4.66
10.13
14.36
17.36
19.30
20.46
21.12
21.40
21.31
20.84
20.00
18.89
17.79
16.96
16.61
16.85
17.56
18.55
19.48
20.02
19.87
18.88
17.06
14.64
11.92
9.18
6.58
4.11
1.69
-0.86
-3.66
-6.76
-10.13
-13.66
-17.25
-20.84
-24.46
-28.14
-31.74
-34.90
-36.96
-37.19
-35.00
-30.23
-23.27
-15.01
-6.50
1.26
7.63
12.37
15.62
17.68
18.94
19.73
20.24
20.57
20.68
20.50
19.96
19.15
18.20
17.40
16.96
16.94
17.19
17.36
17.09
16.11
14.40
12.10
9.40
6.50
3.46
0.38
-2.60
-5.25
-7.31
-8.61
-9.21
-9.41
-9.69
-10.54
-12.30
-15.04
-18.45
-21.89
-24.44
-25.20
-23.51
-19.25
-12.84
-5.18
2.64
9.77
15.79
20.74
24.94
28.72
32.21
35.24
37.55
39.02
39.78
40.28
41.07
42.57
44.92
47.88
51.02
53.96
56.57
59.05
61.77
65.10
69.11
73.49
77.69
81.11
83.41
84.61
85.16
85.67
86.79
88.98
92.35
96.66
101.28
105.08
106.62
104.32
97.10
84.85
68.74
51.03
34.39
20.96
11.72
6.21
2.99
0.44
-2.51
-6.07
-9.85
-13.37
-16.60
-20.06
-24.57
-30.75
-38.70
-47.88
-57.34
-66.19
-73.85
-80.17
-85.29
-89.34
-92.43
-94.57
-95.79
-96.32
-96.43
-96.44
-96.53
-96.63
-96.51
-95.89
-94.61
-92.75
-90.57
-88.39
-86.46
-84.82
-83.42
-82.20
-81.19
-80.48
-80.14
-80.07
-80.09
-79.96
-79.47
-78.54
-77.02
-74.59
-70.65
-64.53
-55.82
-44.62
-31.73
-18.40
-5.91
4.74
13.14
19.41
24.00
27.39
29.87
31.53
32.29
32.13
31.19
29.82
28.48
27.59
27.34
27.66
28.26
28.75
28.81
28.30
27.28
25.90
24.34
22.69
21.00
19.25
17.37
15.39
13.31
11.27
9.38
7.71
6.19
4.61
2.64
-0.05
-3.61
-7.92
-12.53
-16.78
-19.95
-21.47
-21.04
-18.63
-14.52
-9.17
-3.13
3.03
8.81
13.79
17.69
20.38
21.86
22.25
21.77
20.68
19.28
17.87
16.69
15.89
15.53
15.54
15.81
16.22
16.69
17.13
17.48
17.62
17.47
16.97
16.12
14.97
13.58
12.02
10.32
8.53
6.70
4.90
3.18
1.48
-0.30
-2.35
-4.83
-7.83
-11.36
-15.23
-19.07
-22.32
-24.30
-24.36
-22.09
-17.50
-11.07
-3.62
3.86
10.50
15.71
19.24
21.15
21.71
21.31
20.32
19.02
17.65
16.28
14.98
13.80
12.86
12.25
12.05
12.22
12.62
13.05
13.34
13.49
13.60
13.79
14.09
14.30
14.04
12.92
10.75
7.65
4.05
0.45
-2.81
-5.70
-8.44
-11.37
-14.70
-18.42
-22.31
-26.05
-29.26
-31.63
-32.78
-32.33
-29.98
-25.67
-19.74
-12.94
-6.29
-0.70
3.23
5.44
6.29
6.38
6.26
6.21
6.26
6.31
6.26
6.15
6.13
6.31
6.75
7.36
8.00
8.56
9.12
9.87
10.94
12.27
13.50
14.15
13.83
12.46
10.34
7.96
5.81
4.10
2.78
1.59
0.27
-1.29
-3.11
-5.15
-7.40
-9.91
-12.71
-15.65
-18.41
-20.54
-21.52
-20.98
-18.80
-15.20
-10.61
-5.61
-0.72
3.70
7.43
10.41
12.61
13.98
14.52
14.30
13.55
12.59
11.81
11.47
11.61
12.08
12.61
13.00
13.13
13.07
12.93
12.73
12.44
11.95
11.18
10.14
8.98
7.86
6.87
5.96
5.00
3.82
2.40
0.80
-0.85
-2.51
-4.22
-6.16
-8.45
-11.13
-14.09
-17.03
-19.59
-21.39
-22.09
-21.48
-19.47
-16.15
-11.73
-6.63
-1.27
3.91
8.53
12.36
15.25
17.09
17.85
17.50
16.17
14.16
11.94
10.08
9.04
9.02
9.87
11.18
12.43
13.27
13.58
13.43
12.93
12.11
10.88
9.14
6.89
4.29
1.58
-1.00
-3.39
-5.64
-7.87
-10.19
-12.57
-14.96
-17.40
-20.01
-23.00
-26.51
-30.40
-34.28
-37.50
-39.40
-39.48
-37.57
-33.83
-28.63
-22.49
-15.94
-9.49
-3.58
1.43
5.34
8.16
10.03
11.15
11.76
12.08
12.26
12.43
12.69
13.08
13.68
14.54
15.67
17.05
18.58
20.10
21.41
22.36
22.87
22.98
22.86
22.76
22.98
23.84
25.57
28.25
31.77
35.79
39.81
43.34
46.00
47.71
48.58
48.85
48.82
48.80
49.04
49.76
51.21
53.51
56.68
60.47
64.44
68.04
70.77
72.34
72.67
71.78
69.68
66.25
61.36
54.97
47.35
38.97
30.40
22.14
14.46
7.44
1.14
-4.40
-9.02
-12.65
-15.33
-17.20
-18.52
-19.44
-20.05
-20.27
-20.00
-19.17
-17.75
-15.87
-13.72
-11.59
-9.74
-8.36
-7.52
-7.10
-6.93
-6.82
-6.72
-6.66
-6.72
-6.84
-6.81
-6.31
-5.12
-3.23
-0.82
1.71
4.07
6.08
7.74
9.07
10.01
10.33
9.71
7.98
5.29
2.14
-0.69
-2.35
-2.23
-0.10
3.82
9.04
14.92
20.86
26.35
30.96
34.35
36.28
36.75
36.01
34.50
32.61
30.45
27.76
24.00
18.61
11.31
2.21
-8.29
-19.71
-31.62
-43.71
-55.69
-67.20
-77.77
-86.92
-94.26
-99.59
-102.87
-104.10
-103.31
-100.49
-95.83
-89.74
-82.80
-75.69
-68.95
-62.91
-57.70
-53.27
-49.55
-46.49
-43.98
-41.83
-39.79
-37.56
-34.99
-32.15
-29.31
-26.76
-24.64
-22.84
-21.01
-18.93
-16.53
-14.11
-12.09
-10.88
-10.55
-10.89
-11.47
-11.87
-11.92
-11.64
-11.20
-10.82
-10.60
-10.61
-10.92
-11.60
-12.72
-14.23
-15.87
-17.23
-17.81
-17.20
-15.23
-11.99
-7.87
-3.38
0.95
4.70
7.63
9.64
10.77
11.09
10.67
9.63
8.13
6.38
4.64
3.19
2.14
1.47
0.96
0.42
-0.26
-0.91
-1.22
-0.90
0.15
1.66
3.11
3.97
3.90
2.90
1.35
-0.33
-1.78
-2.93
-3.98
-5.23
-6.91
-9.11
-11.77
-14.65
-17.57
-20.30
-22.66
-24.40
-25.24
-24.88
-23.13
-20.07
-16.06
-11.68
-7.54
-4.03
-1.25
0.95
2.81
4.51
6.08
7.41
8.37
8.95
9.22
9.31
9.34
9.33
9.22
8.98
8.63
8.26
7.96
7.74
7.50
7.12
6.53
5.73
4.84
3.91
2.95
1.81
0.39
-1.32
-3.08
-4.53
-5.37
-5.54
-5.36
-5.31
-5.84
-7.09
-8.84
-10.60
-11.78
-11.93
-10.76
-8.20
-4.31
0.69
6.41
12.34
17.94
22.82
26.83
30.17
33.19
36.26
39.52
42.88
46.12
49.01
51.56
53.92
56.30
58.70
60.78
61.91
61.41
58.83
54.17
47.88
40.62
33.01
25.47
18.12
11.05
4.34
-1.78
-7.09
-11.48
-15.09
-18.24
-21.29
-24.43
-27.65
-30.82
-33.86
-36.77
-39.62
-42.37
-44.76
-46.33
-46.56
-45.10
-41.93
-37.40
-32.14
-26.84
-21.99
-17.83
-14.33
-11.33
-8.68
-6.38
-4.51
-3.13
-2.13
-1.24
-0.17
1.24
2.89
4.47
5.66
6.34
6.63
6.79
7.03
7.41
7.74
7.78
7.30
6.24
4.69
2.83
0.84
-1.14
-3.12
-5.16
-7.39
-9.84
-12.45
-15.06
-17.42
-19.36
-20.86
-22.05
-23.15
-24.34
-25.61
-26.75
-27.35
-26.95
-25.20
-21.99
-17.56
-12.45
-7.33
-2.85
0.57
2.87
4.28
5.23
6.19
7.46
9.13
11.08
13.04
14.80
16.32
17.76
19.40
21.48
24.05
26.94
29.84
32.40
34.45
35.96
37.02
37.64
37.84
37.64
37.25
36.99
37.26
38.20
39.59
40.74
40.78
39.03
35.26
29.81
23.51
17.30
11.98
7.97
5.43
4.28
4.49
6.07
9.02
13.20
18.18
23.37
28.08
31.84
34.47
36.15
37.21
38.03
38.86
39.75
40.73
41.73
42.71
43.52
43.96
43.74
42.56
40.19
36.50
31.51
25.32
18.03
9.66
0.23
-10.26
-21.80
-34.16
-46.98
-59.76
-71.99
-83.28
-93.46
-102.50
-110.36
-116.85
-121.51
-123.81
-123.46
-120.72
-116.46
-111.86
-107.95
-105.19
-103.31
-101.53
-99.01
-95.15
-89.66
-82.38
-73.09
-61.53
-47.69
-31.98
-15.36
1.01
16.25
30.09
42.81
54.78
66.07
76.19
84.45
90.38
94.17
96.65
98.92
101.78
105.36
109.15
112.36
114.36
115.07
114.96
114.76
115.13
116.37
118.34
120.73
123.20
125.57
127.58
128.54
127.15
121.68
110.60
93.50
71.58
47.50
24.53
5.39
-8.57
-17.41
-22.02
-23.24
-21.32
-16.07
-7.50
3.63
15.62
26.30
33.86
37.48
37.49
34.98
31.20
27.20
23.83
21.93
22.58
26.88
35.46
47.88
62.36
76.13
86.18
90.31
87.79
79.42
66.98
52.33
36.53
19.66
1.03
-20.02
-43.30
-67.47
-90.31
-109.54
-123.72
-132.77
-137.77
-140.46
-142.40
-144.50
-147.04
-149.94
-153.10
-156.53
-160.26
-164.18
-167.88
-170.74
-172.09
-171.45
-168.64
-163.80
-157.37
-150.05
-142.62
-135.80
-129.93
-124.86
-119.96
-114.32
-107.03
-97.49
-85.54
-71.46
-55.79
-39.25
-22.52
-6.22
9.17
23.38
36.29
48.05
58.93
69.36
79.78
90.47
101.40
112.10
121.87
130.05
136.38
141.10
144.81
148.03
150.91
153.19
154.39
154.27
153.00
151.19
149.41
147.77
145.65
141.86
135.04
124.30
109.57
91.58
71.59
50.97
30.73
11.45
-6.68
-23.59
-39.14
-53.03
-64.92
-74.63
-82.23
-88.09
-92.62
-96.12
-98.65
-100.04
-100.16
-99.07
-97.13
-94.88
-92.85
-91.24
-90.06
-89.06
-88.08
-87.14
-86.47
-86.32
-86.80
-87.72
-88.59
-88.81
-87.76
-85.04
-80.48
-74.19
-66.57
-58.22
-49.88
-42.19
-35.55
-30.02
-25.31
-21.04
-16.85
-12.67
-8.75
-5.45
-3.15
-1.98
-1.76
-2.10
-2.55
-2.76
-2.58
-2.09
-1.55
-1.20
-1.19
-1.58
-2.28
-3.26
-4.47
-5.97
-7.76
-9.83
-12.16
-14.75
-17.73
-21.25
-25.47
-30.40
-35.87
-41.44
-46.48
-50.25
-52.00
-51.19
-47.60
-41.53
-33.70
-25.16
-16.94
-9.80
-4.04
0.47
4.10
7.19
9.94
12.34
14.30
15.70
16.50
16.71
16.40
15.73
14.87
14.03
13.33
12.90
12.71
12.66
12.50
11.95
10.68
8.47
5.29
1.35
-2.98
-7.33
-11.44
-15.43
-19.67
-24.62
-30.47
-36.92
-43.14
-48.00
-50.36
-49.48
-45.17
-37.82
-28.25
-17.53
-6.79
2.99
11.10
17.25
21.57
24.42
26.25
27.41
28.06
28.26
28.09
27.68
27.19
26.73
26.25
25.67
24.92
24.06
23.21
22.40
21.54
20.40
18.79
16.65
14.10
11.26
8.16
4.65
0.48
-4.59
-10.60
-17.32
-24.32
-30.89
-36.22
-39.48
-39.95
-37.28
-31.59
-23.47
-13.86
-3.80
5.81
14.32
21.35
26.75
30.65
33.30
35.07
36.29
37.16
37.69
37.83
37.47
36.64
35.51
34.41
33.71
33.68
34.37
35.52
36.59
36.98
36.20
34.16
31.20
28.02
25.35
23.65
22.92
22.64
22.04
20.33
17.00
12.07
6.12
0.27
-4.04
-5.39
-2.87
3.55
12.83
23.17
32.62
40.05
45.62
50.82
57.65
67.72
81.41
97.67
114.45
129.46
140.96
148.13
151.14
150.80
148.20
144.37
139.93
135.04
129.30
122.03
112.62
101.10
88.44
76.41
67.21
62.63
63.42
68.88
76.95
84.71
89.19
88.12
80.48
66.62
48.07
27.01
5.82
-13.47
-29.47
-41.64
-50.38
-56.88
-62.77
-69.53
-77.87
-87.40
-96.70
-103.92
-107.59
-107.18
-103.33
-97.42
-91.01
-85.27
-80.69
-77.23
-74.54
-72.22
-70.01
-67.84
-65.76
-63.89
-62.29
-60.80
-59.09
-56.67
-53.09
-48.17
-42.04
-35.07
-27.67
-20.22
-13.09
-6.78
-1.98
0.61
0.45
-2.45
-7.38
-13.02
-17.77
-20.17
-19.33
-15.06
-7.96
0.83
9.84
17.59
22.94
25.38
25.17
23.25
20.90
19.25
18.86
19.28
19.16
16.48
9.22
-3.86
-22.57
-45.12
-68.39
-88.83
-103.40
-110.50
-110.27
-104.28
-94.78
-83.96
-73.40
-63.96
-56.10
-50.06
-46.10
-44.29
-44.48
-46.05
-48.10
-49.78
-50.63
-50.85
-51.14
-52.34
-54.93
-58.80
-63.27
-67.53
-71.11
-74.12
-77.09
-80.54
-84.48
-88.17
-90.31
-89.52
-84.94
-76.46
-64.74
-50.93
-36.24
-21.74
-8.30
3.46
13.16
20.78
26.69
31.57
36.15
41.03
46.39
51.99
57.39
62.09
65.78
68.42
70.27
71.76
73.40
75.59
78.36
81.30
83.49
83.78
81.18
75.29
66.36
55.25
43.12
31.04
19.79
9.83
1.34
-5.67
-11.39
-16.14
-20.44
-24.82
-29.60
-34.65
-39.43
-43.07
-44.68
-43.71
-40.10
-34.34
-27.23
-19.69
-12.50
-6.13
-0.69
3.93
7.90
11.29
14.05
16.02
17.08
17.35
17.14
16.75
16.40
16.07
15.63
14.96
14.10
13.25
12.68
12.53
12.74
13.13
13.42
13.43
12.98
11.97
10.33
8.08
5.41
2.60
-0.07
-2.48
-4.73
-7.13
-10.03
-13.69
-18.14
-23.16
-28.28
-32.77
-35.87
-36.83
-35.24
-31.08
-24.81
-17.29
-9.45
-2.11
4.26
9.48
13.62
16.82
19.17
20.66
21.29
21.18
20.49
19.50
18.48
17.57
16.77
16.04
15.39
14.95
14.82
15.01
15.32
15.41
14.96
13.78
11.91
9.60
7.08
4.61
2.30
0.19
-1.78
-3.77
-6.02
-8.92
-12.77
-17.67
-23.37
-29.28
-34.50
-38.02
-39.05
-37.17
-32.52
-25.73
-17.76
-9.64
-2.22
3.94
8.60
11.80
13.71
14.53
14.52
13.88
12.72
11.08
8.92
6.32
3.43
0.62
-1.73
-3.33
-4.13
-4.28
-4.15
-4.08
-4.26
-4.75
-5.33
-5.70
-5.53
-4.49
-2.28
1.32
6.29
12.26
18.45
23.77
27.09
27.70
25.54
21.33
16.34
12.02
9.64
9.86
12.72
17.63
23.58
29.45
34.24
37.31
38.47
37.91
36.02
33.18
29.62
25.33
20.21
14.13
7.06
-0.82
-9.03
-16.78
-23.08
-26.97
-27.90
-26.06
-22.35
-18.15
-14.86
-13.28
-13.55
-15.15
-17.32
-19.43
-21.17
-22.46
-23.38
-24.00
-24.37
-24.66
-25.22
-26.60
-29.39
-33.95
-40.14
-47.18
-53.68
-58.09
-59.23
-56.75
-51.26
-44.14
-36.93
-30.81
-26.17
-22.65
-19.38
-15.42
-10.09
-3.18
5.07
14.05
22.89
30.74
36.81
40.63
42.05
41.31
38.92
35.56
31.92
28.45
25.31
22.22
18.66
14.05
8.01
0.54
-8.05
-17.19
-26.35
-35.20
-43.65
-51.73
-59.51
-67.05
-74.33
-81.27
-87.67
-93.08
-96.77
-97.83
-95.42
-89.14
-79.22
-66.52
-52.19
-37.33
-22.68
-8.57
5.00
18.06
30.63
42.52
53.45
63.04
71.01
77.28
82.13
86.27
90.62
96.06
103.06
111.50
120.74
129.93
138.53
146.59
154.88
164.52
176.42
190.78
206.93
223.45
238.78
251.63
261.25
267.16
268.75
265.05
254.92
237.62
213.43
183.85
151.31
118.28
86.64
57.31
30.49
6.19
-15.33
-33.53
-47.95
-58.55
-65.99
-71.41
-76.04
-80.67
-85.35
-89.53
-92.45
-93.65
-93.31
-92.17
-91.21
-91.05
-91.57
-91.98
-91.19
-88.53
-84.12
-78.95
-74.31
-71.17
-69.73
-69.33
-68.90
-67.51
-64.73
-60.71
-55.95
-51.09
-46.67
-43.21
-41.25
-41.37
-43.92
-48.84
-55.39
-62.25
-67.83
-70.60
-69.56
-64.47
-55.86
-44.90
-33.15
-22.08
-12.70
-5.34
0.37
5.19
9.87
14.77
19.75
24.30
27.90
30.23
31.30
31.28
30.47
29.19
27.83
26.83
26.52
26.99
27.85
28.32
27.48
24.68
19.74
13.05
5.30
-2.74
-10.41
-17.15
-22.62
-26.77
-29.90
-32.76
-36.30
-41.13
-47.16
-53.22
-57.44
-57.89
-53.36
-43.98
-31.14
-17.00
-3.75
7.07
14.76
19.43
21.66
22.17
21.62
20.52
19.26
18.17
17.38
16.88
16.51
15.99
15.11
13.77
12.06
10.24
8.65
7.63
7.41
8.02
9.27
10.81
12.31
13.50
14.23
14.38
13.90
12.58
10.10
6.14
0.50
-6.61
-14.47
-21.89
-27.54
-30.50
-30.61
-28.60
-25.77
-23.36
-22.11
-22.07
-22.82
-23.88
-25.07
-26.51
-28.37
-30.61
-32.88
-34.76
-35.99
-36.68
-37.31
-38.51
-40.77
-44.21
-48.63
-53.45
-57.87
-60.87
-61.47
-58.86
-52.69
-43.23
-31.29
-17.97
-4.31
8.98
21.54
33.20
43.71
52.62
59.34
63.35
64.40
62.68
58.74
53.38
47.38
41.43
36.02
31.30
27.24
23.61
20.30
17.40
15.34
14.70
15.99
19.34
24.40
30.45
36.58
42.13
46.73
50.45
53.63
56.64
59.67
62.61
65.02
66.33
65.96
63.48
58.75
51.98
43.75
34.96
26.70
20.00
15.50
13.28
12.84
13.32
13.93
14.15
13.86
13.12
11.99
10.40
8.29
5.79
3.36
1.69
1.39
2.67
5.12
7.95
10.26
11.46
11.46
10.60
9.47
8.60
8.19
8.19
8.28
8.04
7.09
5.18
2.23
-1.62
-6.09
-10.74
-15.06
-18.57
-20.81
-21.49
-20.54
-18.20
-15.10
-12.14
-10.33
-10.46
-12.89
-17.41
-23.39
-30.03
-36.65
-42.95
-49.04
-55.22
-61.65
-68.18
-74.26
-79.06
-81.80
-82.03
-79.76
-75.46
-69.88
-63.86
-58.04
-52.82
-48.33
-44.52
-41.28
-38.45
-35.92
-33.60
-31.36
-29.05
-26.46
-23.25
-19.02
-13.40
-6.10
2.95
13.42
24.56
35.35
44.65
51.53
55.35
55.95
53.62
48.97
42.79
35.82
28.61
21.40
14.28
7.27
0.61
-5.11
-8.98
-10.06
-7.83
-2.50
4.94
13.01
20.17
25.45
28.55
29.77
29.66
28.67
