1579562138.00
64.000000
-0.00
-0.00
-0.00
-0.00
-0.00
-0.00
-0.00
-0.00
-0.00
-0.00
0.00
0.01
0.01
-0.00
-0.03
-0.05
-0.05
0.00
0.13
0.36
0.66
1.01
1.37
1.72
2.06
2.40
2.79
3.24
3.80
4.42
5.06
5.66
6.20
6.68
7.15
7.68
8.31
9.14
10.09
11.04
11.88
12.56
13.14
13.76
14.65
15.96
17.91
20.32
22.90
25.38
27.58
29.57
31.68
34.32
37.81
42.54
48.15
54.10
59.83
64.97
69.58
74.14
79.34
85.71
93.76
103.00
112.62
121.73
129.77
136.75
143.30
150.75
157.77
166.64
177.95
191.79
206.97
220.57
228.25
225.36
208.53
176.87
132.76
80.05
23.07
-34.94
-92.44
-149.16
-205.23
-260.37
-313.74
-363.87
-409.83
-450.91
-486.50
-515.74
-537.23
-549.22
-549.96
-538.37
-514.21
-478.67
-433.88
-382.45
-327.02
-269.84
-212.63
-156.66
-102.95
-52.37
-5.90
35.58
71.43
101.35
125.50
144.38
158.69
169.15
176.37
180.75
182.57
182.07
179.51
175.23
169.65
163.18
156.15
148.81
141.30
133.69
126.02
118.33
110.69
103.16
95.80
88.68
81.83
75.25
68.95
62.95
57.25
51.86
46.78
42.03
37.59
33.45
29.61
26.07
22.81
19.83
17.11
14.67
12.48
10.54
8.83
7.35
6.07
4.97
4.05
3.27
2.62
2.09
1.65
1.30
1.01
0.79
0.61
0.48
0.37
0.29
0.24
0.20
0.18
0.17
0.17
0.18
0.20
0.23
0.26
0.29
0.34
0.38
0.42
0.47
0.52
0.57
0.62
0.67
0.73
0.79
0.86
0.93
1.00
1.09
1.20
1.33
1.47
1.62
1.75
1.86
1.95
2.05
2.18
2.37
2.64
2.97
3.34
3.73
4.10
4.45
4.81
5.23
5.73
6.33
7.02
7.74
8.44
9.07
9.65
10.21
10.86
11.68
12.73
13.93
15.15
16.24
17.09
17.66
18.07
18.46
18.97
19.57
19.98
19.83
18.63
16.09
12.21
7.30
1.87
-3.50
-8.45
-12.98
-17.37
-22.01
-27.11
-32.54
-37.76
-42.05
-44.86
-45.98
-45.73
-44.79
-43.93
-43.81
-44.90
-47.43
-51.28
-55.61
-58.74
-58.43
-52.74
-40.99
-24.48
-6.27
9.96
21.28
26.70
27.17
24.77
21.56
18.68
16.29
14.07
11.85
9.92
8.79
8.81
9.78
11.04
11.71
11.03
8.77
5.29
1.36
-2.12
-4.45
-5.42
-5.37
-5.01
-5.09
-6.11
-8.11
-10.77
-13.63
-16.07
-17.57
-17.69
-16.08
-12.56
-7.15
-0.12
8.08
16.42
23.71
28.94
31.49
31.20
28.36
23.53
17.47
11.00
4.79
-0.64
-5.00
-8.23
-10.40
-11.65
-12.06
-11.64
-10.47
-8.71
-6.65
-4.70
-3.39
-3.18
-4.34
-6.86
-10.48
-14.72
-19.13
-23.33
-27.10
-30.40
-33.30
-35.95
-38.55
-41.34
-44.39
-47.45
-49.68
-49.86
-46.69
-39.39
-28.08
-13.91
1.27
15.48
27.20
35.69
40.93
43.40
43.62
42.02
38.87
34.46
29.22
23.73
18.68
14.64
11.95
10.67
10.63
11.54
13.10
14.93
16.56
17.46
17.04
14.91
10.98
5.58
-0.62
-6.85
-12.48
-17.25
-21.40
-25.55
-30.44
-36.63
-44.14
-52.26
-59.52
-63.98
-63.84
-57.96
-46.42
-30.52
-12.47
5.27
20.68
32.62
40.84
45.65
47.54
46.88
43.98
39.30
33.61
27.95
23.34
20.45
19.32
19.50
20.31
21.21
22.04
22.98
24.33
26.24
28.42
30.13
30.50
28.82
24.94
19.39
13.30
7.87
3.93
1.63
0.36
-0.91
-3.20
-7.11
-12.56
-18.74
-24.18
-26.92
-24.90
-16.47
-1.08
20.16
44.52
68.19
87.45
99.63
103.76
100.37
90.81
76.55
58.79
38.64
17.40
-3.19
-21.10
-34.64
-42.96
-46.39
-46.18
-44.02
-41.33
-38.93
-37.01
-35.28
-33.43
-31.34
-29.17
-27.28
-26.01
-25.55
-25.80
-26.46
-27.12
-27.48
-27.50
-27.42
-27.74
-29.11
-32.07
-36.95
-43.65
-51.55
-59.48
-65.78
-68.59
-66.33
-58.14
-44.30
-26.26
-6.24
13.33
30.43
43.78
52.93
58.03
59.52
57.97
54.04
48.50
42.21
36.04
30.71
26.68
24.11
22.86
22.64
23.14
24.07
25.23
26.39
27.26
27.40
26.31
23.59
19.08
13.07
6.24
-0.53
-6.44
-11.06
-14.50
-17.37
-20.53
-24.80
-30.56
-37.52
-44.60
-50.04
-51.84
-48.31
-38.70
-23.44
-4.20
16.58
36.35
53.00
65.27
72.73
75.66
74.68
70.64
64.38
56.80
48.80
41.17
34.60
29.54
26.18
24.45
24.14
24.89
26.27
27.79
28.93
29.17
28.06
25.33
20.92
15.08
8.31
1.24
-5.56
-11.83
-17.72
-23.79
-30.78
-39.25
-49.18
-59.77
-69.36
-75.81
-76.97
-71.36
-58.77
-40.37
-18.56
3.66
23.50
39.01
49.36
54.65
55.59
53.11
48.15
41.70
34.78
28.38
23.29
19.88
18.07
17.44
17.56
18.16
19.26
20.90
23.05
25.34
27.10
27.59
26.23
22.80
17.52
10.95
3.73
-3.52
-10.35
-16.58
-22.27
-27.76
-33.58
-40.23
-47.77
-55.64
-62.37
-65.94
-64.33
-56.29
-41.97
-23.02
-2.20
17.54
33.87
45.60
52.65
55.64
55.40
52.56
47.58
40.97
33.51
26.25
20.27
16.31
14.51
14.39
15.14
16.04
16.74
17.28
17.88
18.66
19.38
19.45
18.16
15.01
9.93
3.38
-3.81
-10.72
-16.65
-21.36
-25.16
-28.72
-32.88
-38.34
-45.32
-53.32
-61.10
-66.83
-68.55
-64.80
-55.14
-40.40
-22.50
-3.89
13.18
27.11
37.18
43.36
46.03
45.71
42.98
38.46
32.92
27.16
21.91
17.62
14.46
12.27
10.70
9.37
8.06
6.68
5.33
4.08
2.89
1.45
-0.68
-3.91
-8.41
-13.92
-19.88
-25.58
-30.48
-34.43
-37.68
-40.81
-44.44
-48.98
-54.38
-60.11
-65.08
-67.93
-67.28
-62.11
-52.15
-38.07
-21.38
-4.15
11.59
24.31
33.29
38.61
40.81
40.60
38.54
35.05
30.52
25.40
20.31
15.87
12.67
11.02
11.03
12.51
15.10
18.20
21.11
23.10
23.59
22.35
19.45
15.25
10.21
4.69
-1.05
-6.86
-12.64
-18.43
-24.35
-30.60
-37.24
-43.94
-49.75
-53.27
-52.97
-47.83
-37.83
-24.03
-8.35
6.98
20.05
29.69
35.54
37.93
37.52
35.05
31.19
26.49
21.44
16.49
12.04
8.41
5.77
4.12
3.26
2.96
2.97
3.12
3.23
3.11
2.46
0.95
-1.67
-5.42
-10.03
-14.91
-19.46
-23.24
-26.26
-28.96
-32.09
-36.44
-42.44
-49.90
-57.88
-64.87
-69.01
-68.80
-63.41
-53.13
-39.33
-24.09
-9.61
2.37
10.92
15.99
18.02
17.76
15.83
12.75
8.88
4.67
0.55
-3.02
-5.73
-7.52
-8.59
-9.28
-9.91
-10.66
-11.55
-12.55
-13.75
-15.40
-17.85
-21.38
-25.99
-31.37
-36.96
-42.12
-46.42
-49.70
-52.12
-54.08
-56.09
-58.75
-62.48
-67.40
-73.13
-78.66
-82.50
-83.04
-79.11
-70.43
-57.80
-42.88
-27.72
-14.17
-3.38
4.26
8.91
11.03
11.08
9.52
6.92
4.09
2.06
1.88
4.29
9.51
17.14
26.38
36.32
46.16
55.38
63.53
70.20
74.82
76.73
75.41
70.70
63.00
53.23
42.68
32.54
23.67
16.26
9.96
4.03
-2.31
-9.55
-17.64
-25.86
-32.91
-37.17
-37.15
-31.98
-21.72
-7.55
8.59
24.39
37.87
47.71
53.50
55.51
54.42
51.08
46.27
40.69
34.94
29.61
25.17
22.01
20.33
20.08
21.01
22.66
24.45
25.79
26.24
25.53
23.64
20.78
17.26
13.40
9.44
5.48
1.48
-2.71
-7.37
-12.82
-19.31
-26.82
-34.79
-42.01
-46.81
-47.45
-42.77
-32.65
-18.24
-1.61
14.78
28.84
39.23
45.60
48.30
48.03
45.53
41.36
36.03
29.99
23.84
18.19
13.62
10.51
8.98
8.87
9.82
11.33
12.93
14.18
14.74
14.37
12.98
10.52
7.02
2.61
-2.48
-7.84
-12.95
-17.41
-21.19
-24.72
-28.84
-34.27
-41.08
-48.30
-53.95
-55.69
-51.69
-41.42
-26.01
-7.83
10.26
25.87
37.60
45.22
49.23
50.39
49.27
46.20
41.38
35.22
28.49
22.20
17.36
14.55
13.77
14.48
15.90
17.43
18.82
20.20
21.79
23.59
25.15
25.69
24.45
20.96
15.42
8.60
1.56
-4.72
-9.69
-13.33
-16.18
-19.03
-22.70
-27.70
-34.04
-41.01
-47.30
-51.15
-50.86
-45.30
-34.36
-19.10
-1.45
16.24
31.88
44.05
52.22
56.55
57.65
56.22
52.88
48.18
42.68
36.99
31.83
27.94
25.80
25.54
26.84
29.03
31.32
33.04
33.88
33.77
32.91
31.52
29.66
27.27
24.15
20.15
15.31
9.87
4.32
-0.72
-4.73
-7.42
-8.84
-9.37
-9.64
-10.29
-11.74
-13.99
-16.46
-18.02
-17.25
-12.77
-3.71
10.04
27.68
47.77
68.62
88.68
106.88
122.65
135.77
146.30
154.42
160.56
165.53
170.54
177.07
186.49
199.67
216.63
236.34
256.84
275.47
289.56
296.92
296.47
288.48
274.38
256.30
236.43
216.47
197.49
179.92
163.84
149.06
135.20
121.63
107.55
92.24
75.33
57.02
38.01
19.09
0.68
-17.43
-36.15
-56.57
-79.56
-105.19
-132.85
-161.41
-189.78
-217.35
-244.27
-271.26
-299.57
-330.65
-365.72
-405.16
-447.60
-489.58
-525.88
-551.01
-561.05
-555.20
-536.06
-508.45
-477.43
-446.60
-417.31
-389.34
-361.96
-334.91
-308.48
-283.11
-258.72
-234.67
-209.99
-183.99
-156.49
-127.79
-98.58
-69.65
-41.80
-15.70
8.15
29.72
49.46
68.17
86.57
104.86
122.45
138.16
150.78
159.69
165.24
168.66
171.53
175.18
180.28
186.81
194.34
202.34
210.30
217.67
223.73
227.65
228.85
227.44
224.63
222.56
223.55
229.07
238.79
250.31
259.85
263.60
259.25
246.84
228.53
207.49
186.21
165.37
143.71
118.94
89.13
53.94
15.10
-23.94
-59.05
-86.59
-104.44
-112.72
-114.04
-113.14
-116.03
-128.60
-154.98
-195.76
-247.16
-301.45
-349.06
-381.65
-394.69
-388.67
-368.12
-339.19
-307.16
-274.97
-243.39
-212.36
-182.23
-154.18
-129.60
-109.19
-92.38
-77.79
-64.10
-50.93
-39.06
-29.88
-24.56
-23.37
-25.41
-28.82
-31.49
-31.85
-29.42
-25.02
-20.33
-17.23
-17.03
-20.03
-25.39
-31.56
-36.74
-39.40
-38.60
-34.18
-26.63
-16.90
-6.13
4.62
14.45
22.76
29.14
33.36
35.34
35.11
32.91
29.21
24.69
20.07
16.06
13.10
11.36
10.76
11.04
11.91
13.12
14.50
15.88
17.11
17.96
18.18
17.55
15.94
13.37
10.00
6.15
2.22
-1.38
-4.50
-7.29
-10.23
-13.89
-18.59
-23.97
-28.94
-31.79
-30.75
-24.65
-13.25
2.54
20.95
39.72
56.50
69.32
76.76
78.28
74.34
66.34
56.33
46.42
38.21
32.37
28.62
26.05
23.81
21.41
18.91
16.72
15.18
14.33
13.78
12.98
11.47
9.12
6.16
3.02
0.07
-2.65
-5.47
-8.99
-13.91
-20.73
-29.68
-40.61
-52.93
-65.62
-77.24
-86.07
-90.51
-89.45
-82.74
-71.28
-56.82
-41.43
-26.94
-14.51
-4.57
3.00
8.54
12.35
14.69
15.88
16.37
16.74
17.53
19.06
21.28
23.90
26.51
28.90
31.08
33.27
35.60
37.92
39.71
40.28
39.06
35.91
31.23
25.82
20.48
15.74
11.55
7.45
2.63
-3.68
-11.88
-21.73
-32.21
-41.54
-47.55
-48.26
-42.49
-30.36
-13.30
6.33
26.00
43.66
58.12
68.98
76.32
80.40
81.45
79.88
76.33
71.70
67.05
63.30
61.00
60.21
60.66
61.83
63.28
64.74
66.02
67.04
67.60
67.38
65.92
62.83
57.92
51.34
43.59
35.36
27.28
19.69
12.56
5.54
-1.88
-10.21
-19.80
-30.55
-41.80
-52.04
-59.16
-60.81
-55.20
-41.83
-21.85
2.12
26.73
48.88
66.48
78.68
85.64
88.09
86.89
82.83
76.67
69.30
61.75
55.10
50.31
47.98
48.23
50.75
54.92
59.98
65.19
69.93
73.77
76.44
77.88
78.15
77.49
76.28
74.92
73.79
73.10
72.82
72.70
72.45
71.87
71.04
70.55
71.47
75.30
83.63
97.69
117.89
143.43
172.39
202.13
229.96
253.74
272.23
284.99
292.05
293.70
290.47
283.43
274.27
265.18
258.20
254.49
253.79
254.49
254.25
250.98
243.55
232.12
217.76
201.89
185.61
169.40
153.19
136.71
119.83
102.79
86.10
70.31
55.62
41.79
28.17
14.04
-1.03
-16.89
-32.84
-47.83
-60.92
-71.72
-80.52
-88.28
-96.17
-105.03
-115.05
-125.59
-135.56
-143.94
-150.36
-155.36
-160.24
-166.62
-175.93
-189.12
-206.48
-227.52
-250.80
-273.81
-293.15
-305.26
-307.50
-299.19
-281.79
-258.24
-231.55
-203.47
-174.16
-143.14
-110.77
-79.50
-53.99
-39.88
-41.77
-61.30
-96.21
-140.69
-186.82
-226.45
-253.17
-263.44
-256.86
-235.66
-203.71
-165.48
-125.30
-87.03
-53.97
-28.54
-11.92
-3.63
-1.52
-2.40
-3.11
-1.64
2.49
8.56
15.48
22.64
30.25
38.83
48.55
58.55
67.00
71.73
71.04
64.46
52.86
38.05
21.93
5.81
-9.79
-24.84
-39.14
-51.80
-61.18
-65.48
-63.53
-55.49
-43.03
-29.00
-16.88
-10.19
-12.07
-24.68
-48.55
-81.82
-119.90
-156.09
-182.97
-194.62
-188.31
-165.31
-130.16
-88.97
-47.40
-9.16
24.33
53.45
79.25
102.67
124.06
143.18
159.53
172.35
180.61
182.90
177.59
163.18
138.97
105.44
64.35
18.52
-28.70
-73.83
-113.79
-146.13
-169.56
-183.98
-190.43
-190.65
-186.30
-178.59
-167.98
-154.63
-138.69
-120.68
-101.37
-81.47
-61.24
-40.64
-19.48
2.18
23.94
45.17
65.03
82.52
96.44
105.61
109.32
107.86
102.61
95.71
89.22
84.25
80.79
78.10
75.61
73.70
73.80
77.90
87.56
103.20
123.83
147.35
171.34
193.57
212.38
226.68
235.61
238.35
234.11
222.39
203.40
178.35
149.23
118.30
87.31
57.22
28.35
1.02
-24.15
-46.41
-65.69
-83.32
-101.91
-124.20
-151.34
-181.56
-209.97
-230.01
-235.75
-223.95
-195.15
-153.27
-104.23
-54.32
-8.88
28.23
54.73
69.56
72.61
64.42
46.21
19.72
-12.81
-48.88
-86.05
-122.25
-155.95
-185.98
-211.35
-230.95
-243.68
-248.69
-245.70
-235.26
-218.61
-197.41
-173.28
-147.47
-120.60
-92.77
-63.89
-34.20
-4.82
22.13
43.90
57.88
62.51
57.75
45.08
26.74
4.94
-18.90
-44.28
-71.39
-100.40
-130.65
-160.19
-185.77
-203.49
-209.92
-203.11
-183.29
-152.88
-115.82
-76.47
-38.63
-4.77
24.14
48.34
68.84
86.77
103.03
117.93
131.11
141.62
148.25
149.98
146.40
137.81
125.07
109.33
91.62
72.92
54.20
36.69
21.77
10.55
3.30
-1.00
-4.33
-9.00
-16.65
-27.74
-41.77
-57.93
-75.93
-95.99
-118.44
-142.82
-167.43
-189.65
-206.88
-217.64
-222.04
-221.46
-217.56
-211.46
-203.45
-193.37
-181.38
-168.33
-155.77
-145.08
-136.93
-130.81
-125.53
-119.80
-112.97
-105.34
-97.79
-91.37
-86.81
-84.35
-83.90
-85.17
-87.59
-90.12
-91.09
-88.31
-79.67
-63.88
-41.19
-13.47
16.24
44.63
69.19
88.51
102.36
111.19
115.62
116.15
113.41
108.29
102.19
96.68
93.02
91.68
92.19
93.47
94.34
94.06
92.53
89.96
86.64
82.58
77.64
71.69
64.84
57.46
49.97
42.52
34.82
26.14
15.55
2.38
-13.35
-30.46
-46.53
-58.36
-62.80
-57.86
-43.48
-21.69
4.05
29.93
52.91
71.34
84.91
94.12
99.66
102.08
101.74
99.04
94.72
89.86
85.66
83.14
82.86
84.73
88.23
92.64
97.34
101.84
105.78
108.71
110.01
109.08
105.45
99.18
90.88
81.53
72.17
63.41
55.24
46.98
37.61
26.29
12.85
-1.79
-15.55
-25.55
-28.89
-23.52
-9.04
13.09
39.92
67.88
93.78
115.45
131.92
143.07
149.30
151.02
148.72
142.99
134.73
125.21
115.84
107.88
102.12
98.69
97.13
96.64
96.52
96.32
95.98
95.51
94.78
93.28
90.24
84.98
77.22
67.34
56.21
44.88
34.17
24.32
15.07
5.75
-4.49
-16.48
-30.78
-47.43
-65.57
-83.28
-97.65
-105.40
-103.93
-92.23
-71.46
-44.68
-15.93
10.92
33.15
49.53
60.11
65.53
66.61
63.99
58.30
50.49
41.85
33.97
28.28
25.63
25.97
28.57
32.31
36.24
39.90
43.25
46.42
49.29
51.36
51.81
49.91
45.35
38.49
30.23
21.69
13.85
7.14
1.39
-4.17
-10.57
-18.70
-29.02
-41.12
-53.74
-64.79
-71.77
-72.38
-65.19
-50.16
-28.69
-3.39
22.62
46.36
65.63
79.23
86.93
89.18
86.92
81.28
73.43
64.53
55.58
47.31
40.22
34.51
30.15
27.01
24.90
23.68
23.20
23.25
23.38
22.97
21.25
17.66
12.01
4.65
-3.65
-11.98
-19.65
-26.46
-32.71
-39.15
-46.58
-55.52
-65.79
-76.21
-84.68
-88.56
-85.43
-74.06
-54.93
-30.29
-3.54
21.90
43.50
60.13
71.83
79.24
82.99
83.43
80.80
75.49
68.37
60.70
53.74
48.36
44.79
42.62
41.20
40.02
38.89
37.89
37.14
36.47
35.30
32.74
27.94
20.59
11.06
0.38
-10.15
-19.51
-27.30
-33.89
-40.18
-47.28
-56.13
-67.17
-80.08
-93.74
-106.20
-114.99
-117.67
-112.55
-99.42
-79.69
-56.12
-31.93
-9.93
8.21
21.99
31.73
38.04
41.39
42.08
40.45
37.14
33.20
29.86
28.17
28.62
31.00
34.54
38.31
41.54
43.84
45.22
45.85
45.86
45.20
43.59
40.66
36.12
29.91
22.26
13.70
4.93
-3.45
-11.10
-18.10
-24.99
-32.53
-41.45
-52.07
-64.10
-76.53
-87.71
-95.67
-98.46
-94.70
-83.94
-66.90
-45.36
-21.74
1.49
22.34
39.64
53.02
62.64
68.86
72.07
72.67
71.12
68.12
64.53
61.22
58.90
57.85
58.03
59.17
60.95
63.23
65.86
68.60
70.92
72.04
71.12
67.58
61.38
52.98
43.19
32.83
22.51
12.53
2.89
-6.57
-16.17
-26.24
-36.91
-47.87
-58.15
-66.07
-69.64
-67.24
-58.29
-43.65
-25.47
-6.60
10.36
23.57
32.26
36.51
36.89
34.12
28.93
22.07
14.27
6.25
-1.42
-8.35
-14.25
-18.91
-22.03
-23.22
-22.21
-19.03
-14.14
-8.36
-2.73
1.78
4.45
4.87
2.96
-1.03
-6.54
-12.80
-18.96
-24.36
-28.85
-32.91
-37.52
-43.64
-51.63
-60.70
-68.90
-73.64
-72.63
-64.75
-50.66
-32.64
-13.78
3.00
15.87
24.46
29.62
32.79
35.19
37.39
39.11
39.57
37.98
33.98
27.87
20.45
12.74
5.50
-0.86
-6.38
-11.26
-15.75
-20.03
-24.37
-29.18
-35.03
-42.49
-51.77
-62.59
-74.15
-85.34
-95.10
-102.79
-108.31
-112.13
-115.11
-118.22
-122.22
-127.33
-133.01
-137.87
-139.98
-137.34
-128.61
-113.73
-94.05
-72.13
-50.89
-32.82
-19.19
-9.99
-4.27
-0.77
1.38
2.43
2.17
0.44
-2.51
-5.89
-8.67
-10.13
-10.23
-9.66
-9.47
-10.53
-13.03
-16.47
-19.94
-22.67
-24.41
-25.53
-26.81
-28.93
-32.19
-36.32
-40.67
-44.49
-47.19
-48.61
-49.05
-49.18
-49.78
-51.55
-54.94
-59.97
-66.18
-72.63
-78.02
-80.81
-79.65
-73.64
-62.74
-47.86
-30.70
-13.37
2.25
14.84
23.97
29.84
32.92
33.65
32.23
28.84
23.88
18.12
12.63
8.46
6.25
6.06
7.47
9.84
12.65
15.66
18.74
21.65
23.90
24.79
23.66
20.25
14.83
8.12
0.99
-5.78
-11.76
-16.91
-21.57
-26.33
-31.86
-38.86
-47.71
-58.36
-69.93
-80.74
-88.62
-91.45
-87.89
-77.85
-62.57
-44.22
-25.21
-7.56
7.48
19.42
28.28
34.26
37.60
38.62
37.82
35.97
34.02
32.88
33.16
35.04
38.26
42.29
46.59
50.71
54.39
57.40
59.45
60.08
58.78
55.12
49.01
40.82
31.30
21.37
11.86
3.19
-4.66
-12.20
-20.19
-29.44
-40.34
-52.50
-64.62
-74.57
-79.86
-78.49
-69.62
-54.00
-33.76
-11.82
8.94
26.43
39.50
47.92
51.94
52.03
48.76
42.85
35.23
27.10
19.72
14.13
10.93
10.09
11.00
12.74
14.36
15.29
15.40
14.93
14.24
13.42
12.14
9.76
5.60
-0.72
-9.01
-18.56
-28.33
-37.31
-44.75
-50.42
-54.67
-58.32
-62.48
-68.05
-75.28
-83.25
-89.81
-92.05
-87.17
-73.58
-51.52
-23.25
7.71
37.59
63.42
83.60
97.87
106.84
111.37
112.17
109.82
104.90
98.29
91.13
84.70
80.02
77.59
77.21
78.14
79.40
80.13
79.88
78.69
76.90
74.88
72.65
69.74
65.34
58.63
49.20
37.42
24.30
11.28
-0.33
-9.79
-17.06
-22.75
-27.85
-33.39
-40.26
-49.01
-59.58
-71.23
-82.29
-90.42
-93.08
-88.32
-75.54
-55.86
-31.96
-7.21
15.20
33.18
45.92
53.67
57.15
57.05
53.88
48.09
40.37
31.83
23.83
17.67
14.18
13.54
15.33
18.85
23.37
28.39
33.59
38.69
43.20
46.37
47.30
45.21
39.74
31.22
20.58
9.17
-1.67
-11.05
-18.81
-25.48
-32.19
-40.11
-50.13
-62.41
-76.12
-89.46
-99.94
-104.91
-102.33
-91.41
-72.94
-49.21
-23.42
1.20
22.11
37.94
48.43
54.10
55.70
53.91
49.29
42.51
34.47
26.38
19.50
14.71
12.22
11.57
11.87
12.32
12.54
12.74
13.33
14.55
16.03
16.86
15.86
12.18
5.70
-2.92
-12.44
-21.60
-29.54
-36.11
-41.76
-47.31
-53.69
-61.64
-71.43
-82.59
-93.75
-102.69
-106.75
-103.61
-92.14
-72.94
-48.36
-21.86
3.06
23.82
39.35
50.00
56.89
61.17
63.48
63.95
62.43
59.10
54.66
50.31
47.28
46.31
47.35
49.63
52.09
53.87
54.70
54.80
54.57
54.21
53.40
51.44
47.55
41.24
32.60
22.28
11.31
0.75
-8.59
-16.38
-22.83
-28.60
-34.60
-41.66
-50.21
-60.08
-70.40
-79.63
-85.90
-87.36
-82.76
-71.77
-55.27
-35.19
-14.08
5.51
21.71
33.61
41.26
45.33
46.63
45.86
43.49
39.93
35.65
31.31
27.64
25.29
24.54
25.28
26.95
28.85
30.35
31.15
31.32
31.25
31.29
31.50
31.46
30.45
27.75
23.08
16.75
9.63
2.68
-3.44
-8.68
-13.55
-18.80
-25.09
-32.79
-41.91
-52.15
-62.76
-72.59
-79.91
-82.80
-79.62
-69.73
-53.87
-34.13
-13.34
5.73
21.11
31.91
38.13
40.27
38.99
34.95
28.86
21.55
14.03
7.34
2.32
-0.58
-1.45
-0.77
0.73
2.42
3.86
4.96
5.78
6.41
6.81
6.77
6.00
4.32
1.78
-1.38
-4.78
-8.16
-11.47
-14.97
-19.22
-24.87
-32.48
-42.02
-52.68
-62.70
-69.79
-71.73
-67.21
-56.36
-40.84
-23.25
-6.29
8.00
18.66
25.73
29.72
31.21
30.52
27.79
23.17
17.11
10.36
3.87
-1.53
-5.35
-7.64
-8.75
-9.13
-9.07
-8.54
-7.40
-5.57
-3.23
-0.90
0.80
1.38
0.77
-0.72
-2.48
-3.95
-4.87
-5.47
-6.45
-8.77
-13.29
-20.35
-29.38
-38.77
-46.13
-48.89
-45.16
-34.42
-17.79
2.20
22.36
39.87
52.94
61.13
65.03
65.68
63.99
60.45
55.29
48.82
41.73
35.07
29.96
27.14
26.67
27.96
30.04
32.04
33.46
34.21
34.48
34.41
33.95
32.87
30.91
28.07
24.69
21.43
19.04
18.07
18.51
19.84
21.11
21.30
19.63
15.79
10.03
3.15
-3.58
-8.56
-10.14
-7.01
1.37
14.52
30.94
48.41
64.58
77.45
85.70
88.68
86.21
78.47
65.84
49.06
29.20
7.71
-13.81
-33.73
-50.66
-63.63
-72.08
-75.90
-75.41
-71.29
-64.55
-56.48
-48.35
-41.34
-36.16
-32.99
-31.49
-30.87
-30.24
-28.78
-26.00
-21.90
-17.05
-12.57
-9.81
-9.93
-13.35
-19.37
-26.29
-31.93
-34.48
-33.07
-28.04
-20.48
-11.80
-3.21
4.42
10.47
14.47
16.12
15.34
12.35
7.54
1.28
-6.15
-14.56
-23.66
-32.91
-41.66
-49.22
-55.14
-59.23
-61.53
-62.14
-61.16
-58.86
-55.76
-52.77
-50.98
-51.43
-54.73
-60.83
-68.92
-77.73
-85.82
-92.04
-95.87
-97.50
-97.79
-97.90
-99.00
-101.82
-106.25
-111.26
-114.85
-114.64
-108.45
-95.17
-75.21
-50.48
-23.88
1.58
23.54
40.67
52.66
59.84
62.85
62.32
58.98
53.63
47.34
41.20
36.20
32.96
31.60
31.82
33.14
35.07
37.25
39.43
41.31
42.34
41.78
38.79
32.83
23.84
12.49
-0.03
-12.37
-23.40
-32.74
-40.89
-49.27
-59.72
-73.93
-92.49
-114.36
-136.62
-155.04
-165.11
-163.39
-148.60
-121.91
-86.67
-47.29
-8.09
27.59
57.79
81.74
99.47
111.33
117.82
119.53
117.31
112.32
105.98
99.73
94.65
91.24
89.35
88.36
87.56
86.52
85.20
83.87
82.76
81.74
80.26
77.45
72.55
65.19
55.64
44.72
33.48
22.88
13.42
5.14
-2.45
-10.16
-18.92
-29.52
-42.35
-56.99
-71.99
-84.79
-92.18
-91.28
-80.50
-60.42
-33.72
-4.53
23.04
45.99
63.10
74.74
82.07
86.20
87.73
86.78
83.42
78.02
71.47
65.01
59.86
56.84
56.15
57.34
59.51
61.74
63.35
64.04
63.87
63.05
61.61
59.29
55.61
49.99
42.15
32.27
20.99
9.27
-1.87
-11.73
-20.10
-27.31
-34.10
-41.38
-49.98
-60.44
-72.77
-86.22
-99.21
-109.45
-114.29
-111.49
-99.91
-80.11
-54.36
-26.10
1.03
24.13
41.61
53.20
59.46
61.23
59.19
53.91
46.05
36.70
27.35
19.56
14.40
12.07
11.85
12.49
12.79
12.14
10.62
8.73
6.90
5.11
2.80
-0.80
-6.20
-13.28
-21.11
-28.30
-33.43
-35.64
-34.93
-32.18
-28.90
-26.76
-27.12
-30.52
-36.36
-42.83
-47.27
-46.86
-39.50
-24.48
-2.74
23.37
50.78
76.47
98.13
114.36
124.67
129.26
128.76
124.06
116.22
106.44
95.95
85.88
77.09
69.99
64.57
60.42
57.01
53.92
51.04
48.42
46.07
43.77
40.87
36.58
30.20
21.56
11.10
-0.30
-11.57
-21.95
-31.16
-39.50
-47.72
-56.77
-67.48
-80.20
-94.45
-108.73
-120.68
-127.52
-127.05
-118.39
-102.55
-82.18
-60.68
-41.04
-24.95
-12.62
-3.20
4.33
10.57
15.54
18.94
20.73
21.36
21.64
22.48
24.38
27.38
31.07
34.91
38.47
41.55
44.15
46.34
48.06
49.11
49.07
47.38
43.55
37.38
29.16
19.65
9.93
1.07
-6.30
-12.15
-17.04
-21.87
-27.55
-34.65
-43.09
-52.03
-59.80
-64.27
-63.35
-55.69
-41.28
-21.66
0.42
21.77
39.68
52.57
60.14
63.06
62.45
59.35
54.48
48.31
41.24
33.77
26.52
20.23
15.52
12.81
12.15
13.21
15.46
18.21
20.91
23.19
24.88
25.90
26.16
25.43
23.49
20.19
15.63
10.21
4.59
-0.53
-4.63
-7.45
-9.09
-9.94
-10.74
-12.36
-15.71
-21.27
-28.66
-36.49
-42.35
-43.60
-38.17
-25.53
-6.97
14.79
36.47
55.39
70.13
80.73
88.15
93.53
97.48
99.89
100.09
97.54
92.43
86.02
80.37
77.61
79.05
84.69
93.15
102.15
109.00
110.96
105.13
88.68
59.54
17.63
-34.15
-90.03
-142.85
-186.56
-218.12
-238.02
-248.79
-252.84
-250.91
-242.22
-226.11
-203.65
-178.23
-154.31
-135.36
-122.26
-113.05
-104.18
-92.18
-75.01
-52.46
-25.96
2.10
29.16
53.14
72.80
87.90
98.94
106.65
111.50
113.42
112.14
107.79
101.31
94.35
88.71
85.52
84.68
85.04
84.94
83.02
78.75
72.61
65.80
59.70
55.37
53.21
52.95
53.87
55.27
56.63
57.67
58.16
57.66
55.52
50.97
43.60
33.70
22.42
11.53
2.85
-2.45
-4.22
-3.43
-1.75
-1.02
-2.69
-7.69
-16.22
-27.94
-42.01
-57.15
-71.78
-84.33
-93.49
-98.58
-99.66
-97.48
-93.15
-87.80
-82.36
-77.29
-72.73
-68.66
-65.10
-62.36
-60.97
-61.54
-64.34
-69.08
-74.85
-80.44
-84.77
-87.34
-88.35
-88.48
-88.57
-89.19
-90.46
-92.00
-92.94
-92.15
-88.45
-80.92
-69.29
-54.14
-36.84
-19.22
-3.08
10.31
20.37
27.15
31.05
32.62
32.44
31.14
29.45
28.15
27.95
29.21
31.86
35.41
39.08
42.22
44.49
46.02
47.21
48.52
50.17
51.94
53.32
53.67
52.60
50.12
46.68
42.93
39.51
36.81
34.81
33.06
30.81
27.14
21.24
12.65
1.50
-11.29
-24.07
-34.68
-40.97
-41.49
-36.01
-25.67
-12.69
0.34
11.28
19.00
23.52
25.67
26.41
26.44
25.99
25.06
23.73
22.42
21.75
22.21
23.84
26.20
28.50
30.04
30.55
30.17
29.31
28.35
27.42
26.42
25.12
23.29
20.78
17.49
13.42
8.64
3.34
-2.19
-7.61
-12.76
-17.76
-22.95
-28.81
-35.60
-43.11
-50.57
-56.85
-60.88
-62.17
-61.00
-58.16
-54.27
-49.43
-43.35
-35.99
-28.39
-22.69
-21.49
-26.87
-39.68
-59.73
-86.50
-119.55
-158.55
-202.41
-248.34
-291.81
-327.45
-350.78
-359.59
-354.27
-336.98
-310.77
-278.66
-243.46
-207.54
-172.94
-141.07
-112.58
-87.32
-64.49
-43.41
-24.10
-7.22
6.42
16.30
22.47
25.65
27.01
28.81
33.01
40.82
52.54
67.89
86.07
105.72
124.93
141.69
155.88
167.58
176.46
182.05
184.44
184.51
183.51
182.40
181.76
184.25
191.28
202.04
214.23
225.85
236.24
245.90
255.71
266.83
283.55
308.21
339.28
371.75
399.87
419.45
428.78
428.23
401.91
346.46
273.30
201.66
144.61
104.63
78.19
60.73
48.45
36.66
25.28
14.16
1.69
-14.86
-37.66
-68.46
-104.43
-144.42
-188.30
-234.29
-282.14
-333.29
-389.02
-447.29
-501.54
-542.15
-560.71
-552.94
-519.00
-465.32
-402.41
-340.86
-287.49
-244.19
-209.40
-181.13
-158.09
-138.98
-122.94
-109.15
-96.60
-84.29
-71.85
-59.90
-50.32
-44.95
-44.12
-46.20
-47.79
-44.80
-33.93
-14.17
12.58
41.87
68.56
88.75
100.99
106.26
107.01
105.63
103.57
101.07
97.70
93.17
87.80
82.50
78.27
75.74
74.87
75.11
75.73
76.15
76.18
75.71
74.54
72.28
68.36
62.40
54.36
44.72
34.34
24.12
14.92
6.98
-0.13
-7.33
-15.58
-25.37
-36.40
-47.35
-56.13
-60.14
-57.32
-47.00
-30.19
-9.33
12.53
32.47
48.43
59.49
66.24
69.76
70.92
70.22
68.03
64.95
61.66
58.86
57.04
57.70
61.42
67.32
73.73
79.36
83.91
87.75
91.13
93.85
98.00
104.40
111.80
117.92
121.52
123.18
124.36
125.95
127.73
132.79
142.30
154.11
164.52
171.85
177.98
187.11
203.65
230.55
273.68
333.70
403.64
471.36
525.73
561.03
577.38
579.05
534.68
434.15
295.57
153.93
35.78
-50.67
-108.65
-144.72
-165.47
-176.20
-178.83
-175.29
-169.99
-168.81
-175.49
-190.26
-211.92
-240.86
-274.40
-308.52
-341.90
-376.99
-418.71
-470.35
-530.34
-591.94
-645.01
-678.99
-684.50
-658.57
-605.61
-536.26
-462.38
-392.45
-329.48
-272.01
-216.62
-159.80
-100.38
-38.71
22.10
77.41
123.12
157.56
181.97
199.67
214.82
231.24
253.69
284.41
321.95
362.07
399.71
430.31
450.44
458.21
440.31
394.35
331.65
269.90
221.07
187.62
166.57
154.09
147.28
144.13
145.06
149.09
153.22
154.26
150.99
144.65
137.62
131.43
125.62
119.05
111.41
99.71
80.86
53.97
20.62
-16.21
-54.10
-92.23
-130.10
-168.99
-212.31
-263.87
-325.84
-397.51
-474.71
-550.32
-615.34
-659.78
-677.09
-667.19
-635.60
-590.38
-538.93
-485.56
-431.77
-377.40
-320.95
-262.71
-205.75
-153.46
-106.84
-63.93
-20.38
28.12
84.65
152.06
229.81
312.74
392.38
459.95
508.63
536.01
543.75
526.28
486.05
434.93
386.37
346.40
315.59
289.02
265.40
245.41
228.60
214.67
200.96
183.03
157.42
123.97
85.39
46.16
9.59
-23.47
-53.27
-82.45
-115.53
-156.92
-209.12
-271.82
-341.07
-409.37
-467.40
-505.69
-519.01
-508.56
-480.21
-442.71
-404.53
-371.56
-344.46
-321.15
-298.76
-276.44
-255.38
-235.05
-214.67
-193.26
-171.06
-145.81
-115.78
-80.66
-42.60
-4.54
34.51
75.35
117.52
157.41
196.10
236.25
281.18
333.09
392.75
463.02
541.09
617.26
675.31
707.00
711.28
693.98
663.87
601.25
503.59
386.42
293.34
224.39
172.57
127.28
86.38
48.90
13.62
-16.90
-42.59
-66.73
-97.39
-136.23
-182.91
-236.55
-297.15
-363.53
-428.25
-482.58
-519.40
-537.44
-535.28
-515.21
-482.77
-445.56
-409.92
-376.97
-346.07
-316.82
-291.09
-268.14
-246.12
-222.48
-195.17
-163.07
-125.38
-83.24
-39.35
2.40
40.87
77.38
115.41
159.20
212.30
275.93
347.01
417.94
478.35
519.24
535.96
529.85
507.38
477.27
447.03
420.39
396.99
373.90
348.22
318.84
286.77
253.99
221.88
190.17
156.87
119.14
74.36
20.88
-41.95
-113.69
-192.49
-274.54
-353.85
-423.04
-475.15
-505.92
-515.14
-506.43
-485.43
-457.37
-425.53
-391.24
-354.99
-317.62
-280.70
-245.68
-212.63
-179.61
-142.97
-98.54
-42.95
25.27
104.80
190.95
276.16
351.38
408.58
443.27
456.06
451.93
437.88
419.69
399.95
378.15
352.42
321.90
287.68
252.29
217.84
184.44
149.91
110.71
63.48
5.97
-62.47
-140.57
-224.95
-309.92
-387.98
-451.31
-494.02
-514.14
-514.30
-500.48
-479.59
-457.01
-435.31
-414.65
-394.07
-372.85
-350.96
-328.62
-305.65
-281.20
-254.09
-223.49
-189.44
-152.76
-114.78
-76.59
-38.49
0.13
40.40
83.01
127.34
171.08
210.70
242.73
265.18
278.43
285.08
288.72
292.54
298.23
305.85
314.52
323.47
332.80
343.54
357.11
374.21
394.04
414.08
430.69
440.33
440.95
432.83
418.39
401.11
384.08
369.00
355.94
344.01
332.27
320.25
308.01
295.57
282.53
267.99
251.00
231.11
208.77
185.21
161.94
140.20
120.44
102.35
85.17
68.22
51.29
34.78
19.39
5.71
-6.23
-17.08
-27.93
-39.88
-53.47
-68.56
-84.29
-99.68
-114.17
-127.92
-141.93
-157.55
-175.91
-197.34
-221.37
-246.76
-272.09
-296.37
-319.38
-341.99
-366.28
-395.36
-432.44
-479.15
-533.66
-589.68
-637.32
-666.02
-668.24
-642.18
-592.15
-526.62
-454.97
-385.08
-322.19
-269.34
-227.85
-197.46
-175.84
-158.77
-141.11
-118.83
-90.88
-59.57
-29.03
-2.89
17.33
32.29
43.56
51.88
56.64
56.61
51.37
42.11
31.40
21.86
14.81
9.72
4.91
-1.20
-8.97
-17.43
-24.96
-30.52
-34.38
-38.15
-43.92
-53.15
-65.65
-79.18
-89.69
-92.63
-84.38
-63.73
-32.44
5.06
43.21
76.83
102.63
119.54
128.38
130.87
128.71
123.20
115.26
105.78
95.79
86.54
79.14
74.32
72.12
72.09
73.49
75.68
78.22
80.78
82.89
83.72
82.31
77.86
70.14
59.70
47.71
35.48
23.95
13.35
3.21
-7.46
-19.84
-34.80
-52.36
-71.15
-88.20
-99.35
-100.43
-88.81
-64.60
-30.88
7.22
44.26
76.05
100.51
117.45
127.75
132.52
132.62
128.89
122.41
114.69
107.44
102.15
99.51
99.29
100.57
102.14
103.09
103.15
102.60
101.93
101.28
100.10
97.22
91.32
81.53
67.98
51.86
35.03
19.30
5.85
-5.18
-14.65
-24.00
-34.91
-48.67
-65.70
-85.02
-104.04
-118.88
-125.23
-119.85
-101.80
-73.13
-38.23
-2.43
29.80
55.87
75.25
88.67
96.93
100.35
98.73
92.13
81.37
68.38
55.65
45.51
39.38
37.40
38.71
41.96
45.98
50.06
54.04
57.93
61.55
64.24
64.86
62.09
54.97
43.35
28.16
11.20
-5.32
-19.66
-31.06
-39.99
-47.86
-56.50
-67.41
-81.38
-98.13
-116.12
-132.50
-143.44
-145.00
-134.40
-111.12
-77.59
-38.55
0.37
34.36
60.63
78.63
89.32
94.13
94.22
90.35
83.35
74.38
65.06
57.01
51.37
48.44
47.76
48.46
49.73
51.08
52.36
53.50
54.16
53.72
51.32
46.29
38.46
28.30
16.78
5.00
-6.20
-16.50
-26.23
-36.26
-47.77
-61.74
-78.35
-96.41
-113.16
-124.81
-127.51
-118.81
-98.60
-69.43
-35.72
-2.41
26.41
48.45
63.19
71.46
74.46
73.32
68.82
61.63
52.61
42.97
34.10
27.21
23.02
21.47
22.01
23.85
26.26
28.69
30.55
31.04
29.17
24.07
15.41
3.69
-9.81
-23.52
-36.13
-47.05
-56.52
-65.52
-75.42
-87.56
-102.62
-120.05
-137.63
-151.65
-157.75
-152.33
-133.96
-104.16
-67.06
-28.08
7.69
36.78
57.82
71.09
77.80
79.24
76.56
70.81
63.19
55.13
48.06
43.10
40.71
40.56
41.78
43.36
44.55
45.11
45.23
45.17
44.96
44.17
41.94
37.34
29.82
19.48
7.17
-5.77
-17.99
-28.66
-37.71
-45.96
-54.80
-65.75
-79.84
-97.06
-115.90
-133.43
-145.75
-149.02
-140.72
-120.52
-90.63
-55.14
-18.80
14.23
41.28
61.34
74.62
81.92
84.11
81.98
76.45
68.76
60.52
53.42
48.90
47.62
49.36
53.09
57.44
61.07
63.14
63.38
61.97
59.25
55.47
50.50
43.92
35.16
23.81
9.91
-5.92
-22.50
-38.49
-52.74
-64.68
-74.43
-82.65
-90.34
-98.54
-108.14
-119.55
-132.39
-145.16
-155.11
-158.71
-152.55
-134.56
-104.97
-66.58
-24.01
17.56
53.87
82.40
102.50
114.84
120.59
120.90
116.79
109.38
100.07
90.64
82.83
77.97
76.62
78.40
82.27
86.89
91.10
94.24
96.17
97.14
97.35
96.72
94.60
90.11
82.47
71.54
58.09
43.54
29.46
16.91
5.99
-4.11
-14.77
-27.42
-42.99
-61.59
-82.25
-102.80
-120.07
-130.37
-130.62
-119.24
-97.00
-66.97
-33.60
-1.43
26.10
47.26
61.80
70.25
73.28
71.37
65.00
55.07
43.11
31.21
21.48
15.40
13.28
14.24
16.62
18.73
19.50
18.79
17.24
15.59
14.15
12.38
9.07
2.88
-7.02
-20.46
-36.28
-52.71
-68.00
-80.94
-91.23
-99.50
-107.01
-115.31
-125.73
-138.79
-153.73
-168.20
-178.49
-180.38
-170.37
-146.96
-111.46
-67.74
-21.30
22.26
58.72
85.87
103.57
112.86
115.25
112.07
104.42
93.38
80.35
67.16
55.71
47.60
43.50
42.99
44.78
47.22
48.97
49.36
48.54
47.07
45.41
43.44
40.27
34.43
24.49
9.60
-10.11
-33.38
-58.24
-82.57
-104.69
-123.74
-139.74
-153.41
-165.78
-177.93
-190.60
-203.96
-217.24
-228.67
-235.53
-234.84
-224.25
-202.93
-172.22
-135.34
-96.57
-59.93
-28.19
-2.45
17.57
32.75
43.97
51.79
56.55
58.78
59.43
59.86
61.51
65.48
72.12
81.02
91.25
101.62
111.15
119.15
125.33
129.66
132.27
133.21
132.48
129.92
125.39
118.87
110.57
101.05
91.00
81.13
71.91
63.47
55.60
47.87
39.72
30.51
19.62
6.75
-7.64
-21.93
-33.30
-38.32
-34.09
-19.49
4.02
32.64
61.34
85.46
101.96
109.93
110.17
104.28
93.95
80.57
65.46
50.15
36.54
26.62
22.03
23.47
30.46
41.48
54.45
67.24
78.21
86.40
91.57
93.91
93.81
91.50
87.00
80.16
70.96
59.74
47.33
34.87
23.48
13.81
5.87
-0.93
-7.47
-14.65
-23.12
-33.36
-45.60
-59.75
-75.05
-89.74
-101.09
-105.95
-101.80
-87.78
-65.25
-37.53
-8.91
16.76
36.99
50.95
59.11
62.45
61.96
58.35
52.36
45.01
37.69
31.97
29.08
29.48
32.66
37.46
42.36
46.19
48.40
49.10
48.78
47.86
46.32
43.73
39.42
32.98
24.57
14.96
5.27
-3.46
-10.73
-16.65
-21.97
-27.70
-34.89
-44.25
-55.98
-69.57
-83.63
-95.98
-104.03
-105.41
-98.79
-84.36
-63.90
-40.31
-16.75
4.15
20.79
32.57
39.68
42.60
41.86
38.00
31.71
24.01
16.24
9.85
6.07
5.44
7.71
11.90
16.74
21.08
24.28
26.24
27.27
27.66
27.51
26.53
24.22
20.08
13.97
6.18
-2.53
-11.21
-19.03
-25.60
-31.07
-36.09
-41.55
-48.29
-56.82
-67.02
-77.95
-87.85
-94.36
-95.04
-88.17
-73.42
-52.15
-27.13
-1.75
20.93
38.96
51.64
59.29
62.68
62.57
59.52
54.01
46.65
38.34
30.21
23.55
19.45
18.84
22.28
29.94
41.38
55.57
70.93
85.82
99.16
110.91
121.98
133.33
144.91
154.84
159.59
155.25
138.95
110.02
69.87
21.29
-32.34
-87.33
-139.47
-183.99
-216.34
-233.56
-235.67
-225.76
-208.78
-189.20
-169.28
-148.64
-125.67
-99.35
-70.66
-42.34
-17.62
1.39
14.38
22.51
27.40
30.15
31.13
30.19
27.33
22.83
17.31
11.54
6.51
3.67
4.89
11.94
25.48
44.27
64.98
83.11
94.52
96.83
89.99
75.84
57.01
35.65
13.02
-10.50
-35.06
-60.95
-88.67
-119.33
-154.84
-197.56
-249.19
-308.94
-372.34
-431.34
-476.19
-498.69
-495.12
-467.48
-422.42
-368.20
-311.68
-256.56
-203.81
-153.26
-105.38
-61.65
-23.75
7.89
34.91
60.75
89.47
124.24
166.39
214.77
266.00
315.33
357.79
389.47
408.47
414.99
410.67
397.50
376.97
349.87
316.93
279.38
239.34
199.30
161.24
125.81
92.21
58.80
24.11
-12.20
-49.03
-83.96
-113.81
-135.60
-147.44
-149.22
-142.84
-131.63
-119.27
-108.67
-101.08
-96.19
-92.75
-89.60
-86.35
-83.34
-81.29
-80.60
-81.01
-81.62
-81.35
-79.45
-75.77
-70.78
-65.25
-59.96
-55.29
-51.23
-47.35
-43.06
-37.94
-31.93
-25.43
-19.25
-14.36
-11.55
-11.17
-12.95
-15.92
-18.55
-18.84
-14.87
-5.20
10.61
31.62
55.56
79.24
99.17
112.21
116.01
109.17
91.26
62.61
24.39
-21.25
-71.01
-120.41
-164.25
-197.57
-216.78
-220.64
-210.62
-190.50
-165.14
-139.21
-116.08
-97.39
-83.19
-72.40
-63.37
-54.28
-43.49
-29.71
-12.34
8.50
32.07
57.37
83.59
110.55
138.80
169.33
202.93
239.31
276.40
310.24
335.67
347.81
343.75
323.69
291.01
251.12
209.57
170.43
135.46
104.41
76.12
49.59
24.65
1.82
-18.14
-34.85
-48.41
-59.40
-68.53
-76.44
-83.64
-90.63
-97.97
-106.35
-116.44
-128.72
-143.37
-160.25
-179.09
-199.69
-221.84
-245.05
-268.04
-288.45
-303.11
-308.91
-303.99
-288.54
-264.91
-236.78
-207.79
-180.48
-155.86
-133.90
-114.29
-97.27
-83.70
-74.73
-70.88
-71.29
-73.53
-73.92
-68.63
-54.85
-31.72
-0.17
37.77
80.14
125.69
173.57
222.64
270.66
314.19
349.32
372.85
383.25
380.84
367.43
345.70
318.97
291.19
266.68
249.60
242.77
246.65
258.88
274.69
288.19
294.31
290.49
277.76
260.40
244.13
233.57
230.00
230.69
230.22
223.26
207.06
182.51
153.05
122.12
90.84
57.58
19.64
-24.06
-70.87
-114.56
-147.37
-163.22
-160.17
-141.10
-112.46
-82.03
-56.86
-41.98
-39.92
-50.66
-71.75
-98.53
-124.98
-145.11
-154.55
-151.80
-138.25
-117.19
-92.37
-66.87
-42.74
-21.36
-3.96
8.26
14.56
15.18
11.54
5.77
-0.23
-5.56
-10.57
-16.55
-24.91
-36.48
-51.28
-68.61
-87.45
-106.76
-125.47
-142.16
-154.89
-161.10
-158.39
-144.73
-119.04
-81.95
-36.28
13.32
61.57
104.03
138.16
163.21
179.75
189.03
191.87
188.46
178.65
162.38
139.73
110.48
73.36
27.85
-23.69
-75.16
-118.09
-144.65
-150.90
-138.79
-115.46
-92.36
-78.49
-76.31
-81.98
-89.39
-94.00
-94.29
-91.08
-85.79
-83.33
-85.91
-90.74
-91.99
-85.79
-72.66
-56.49
-42.05
-33.08
-38.16
-61.57
-98.91
-139.47
-173.89
-198.35
-214.15
-225.14
-235.65
-258.49
-303.18
-369.74
-450.22
-536.09
-621.60
-701.97
-771.33
-764.67
-647.18
-442.31
-215.50
-21.76
118.25
209.45
267.39
308.15
341.83
365.03
370.48
357.25
332.30
303.97
277.57
255.41
238.11
224.52
207.61
182.52
151.59
123.08
104.56
99.00
105.10
119.15
136.65
149.31
151.01
141.48
125.34
107.63
91.03
75.98
62.11
49.28
36.11
22.12
8.88
-1.11
-6.49
-7.84
-6.75
-4.56
-1.85
0.64
2.14
2.19
0.72
-2.10
-5.76
-9.26
-11.36
-11.02
-7.66
-1.16
8.51
21.67
38.70
59.58
83.28
107.59
129.55
146.22
155.43
156.11
148.18
132.08
108.30
77.23
39.13
-5.59
-56.09
-110.71
-166.89
-221.25
-270.17
-310.44
-339.80
-357.07
-362.00
-355.02
-337.08
-309.86
-275.78
-237.88
-199.18
-162.00
-127.52
-95.86
-66.55
-39.03
-12.93
12.03
36.30
60.30
84.16
107.28
128.38
145.87
158.64
166.57
170.70
172.76
174.43
176.70
179.48
181.83
182.46
180.34
175.09
166.98
156.64
144.66
131.30
116.59
100.54
83.53
66.39
50.22
35.93
23.78
13.30
3.54
-6.52
-17.52
-29.48
-41.91
-53.83
-64.11
-71.51
-74.90
-73.46
-66.98
-56.03
-42.00
-26.74
-12.03
0.85
11.29
19.21
24.66
27.65
28.02
25.81
21.43
15.74
9.88
4.93
1.69
0.47
1.25
3.63
7.01
10.71
14.03
16.47
17.71
17.63
16.17
13.25
8.60
1.93
-6.88
-17.57
-29.15
-39.91
-47.60
-50.07
-45.87
-34.97
-18.86
-0.19
18.00
33.19
43.99
50.16
52.24
51.06
47.34
41.69
34.74
27.30
20.27
14.43
10.07
6.82
3.78
-0.28
-6.27
-14.36
-23.66
-32.34
-38.25
-39.61
-35.81
-27.68
-17.36
-7.59
-1.05
0.38
-4.03
-13.75
-26.95
-40.70
-51.34
-55.18
-49.46
-33.37
-8.53
21.28
51.26
77.02
95.88
107.26
112.23
112.53
109.57
104.00
95.92
85.49
73.47
61.23
50.29
41.65
35.09
29.24
22.15
12.25
-0.79
-15.80
-30.61
-42.90
-51.14
-55.11
-55.72
-54.36
-52.41
-50.79
-50.04
-50.44
-52.05
-54.62
-57.36
-58.92
-57.73
-52.50
-42.74
-29.02
-12.79
3.98
19.35
31.76
40.17
43.95
42.90
37.20
27.46
14.79
0.74
-13.03
-25.06
-34.34
-40.49
-43.67
-44.40
-43.42
-41.50
-39.33
-37.58
-36.79
-37.45
-39.93
-44.54
-51.33
-60.02
-69.69
-78.77
-85.23
-87.01
-82.61
-71.51
-54.27
-32.38
-7.88
16.98
39.93
58.84
71.97
78.13
76.96
69.00
55.71
39.06
21.19
4.04
-10.91
-22.67
-30.84
-35.54
-37.45
-37.68
-37.62
-38.54
-41.31
-46.33
-53.54
-62.85
-74.36
-88.38
-105.25
-124.87
-146.38
-167.99
-187.28
-201.60
-208.62
-206.71
-195.15
-174.30
-145.62
-111.62
-75.65
-41.37
-12.10
9.99
24.38
32.31
36.47
40.12
46.13
56.16
70.21
86.82
103.63
118.26
128.89
134.77
136.20
134.26
130.36
125.68
120.83
115.64
109.33
100.91
89.70
75.72
59.91
43.86
29.40
18.07
10.73
7.39
7.47
10.23
15.24
22.60
32.85
46.40
62.87
80.58
96.58
107.43
110.32
104.27
90.60
72.62
54.49
39.80
30.56
26.78
26.92
28.66
29.88
29.21
26.26
21.34
15.12
8.19
0.84
-6.95
-15.42
-24.78
-35.01
-45.69
-55.94
-64.57
-70.27
-71.99
-69.21
-62.13
-51.63
-38.96
-25.50
-12.37
-0.43
9.68
17.27
21.55
21.77
17.52
9.12
-2.12
-14.04
-23.97
-29.56
-29.41
-23.75
-14.40
-4.38
3.14
5.80
2.85
-4.82
-15.24
-26.17
-35.93
-43.55
-48.54
-50.41
-48.43
-41.80
-30.18
-14.23
4.27
22.88
39.24
51.91
60.70
66.48
70.57
74.13
77.67
81.03
83.63
84.83
84.26
81.91
78.16
73.55
68.64
63.84
59.36
55.25
51.42
47.64
43.55
38.66
32.38
24.22
14.10
2.59
-8.95
-18.53
-24.05
-23.92
-17.70
-6.41
7.65
21.47
32.24
38.14
38.77
35.08
28.96
22.47
17.22
14.10
13.25
14.34
16.83
20.21
23.98
27.64
30.64
32.42
32.59
31.01
27.93
23.90
19.58
15.52
11.94
8.66
5.10
0.49
-5.81
-14.06
-23.84
-34.03
-42.95
-48.91
-50.70
-48.04
-41.68
-33.05
-23.69
-14.70
-6.62
0.47
6.50
11.15
13.84
14.05
11.76
7.63
2.98
-0.78
-2.61
-2.16
0.22
3.82
8.01
12.50
17.31
22.62
28.40
34.23
39.39
43.00
44.39
43.19
39.50
33.78
26.91
20.01
14.46
11.54
12.11
16.26
23.14
31.12
38.31
43.15
44.95
43.93
40.96
37.07
33.01
29.02
25.01
20.84
16.52
12.31
8.52
5.34
2.68
0.29
-2.14
-4.77
-7.55
-10.25
-12.60
-14.35
-15.43
-15.98
-16.29
-16.79
-17.86
-19.74
-22.36
-25.33
-27.99
-29.56
-29.31
-26.77
-21.87
-15.00
-6.96
1.23
8.59
14.44
18.54
21.02
22.14
22.14
21.12
19.09
16.18
12.75
9.38
6.64
4.85
4.01
3.71
3.46
2.91
1.98
0.88
-0.07
-0.69
-1.04
-1.38
-2.05
-3.26
-5.07
-7.34
-9.88
-12.44
-14.69
-16.18
-16.31
-14.56
-10.74
-5.17
1.29
7.52
12.53
15.80
17.31
17.39
16.44
14.71
12.31
9.30
5.93
2.57
-0.35
-2.53
-3.94
-4.83
-5.55
-6.44
-7.67
-9.19
-10.80
-12.26
-13.40
-14.16
-14.64
-15.08
-15.79
-17.06
-19.06
-21.72
-24.68
-27.27
-28.68
-28.13
-25.21
-20.01
-13.19
-5.75
1.24
6.94
10.98
13.38
14.46
14.57
13.97
12.81
11.21
9.36
7.54
6.08
5.16
4.81
4.86
5.01
4.99
4.67
3.99
2.99
1.70
0.13
-1.73
-3.81
-5.98
-8.07
-9.89
-11.35
-12.46
-13.33
-14.18
-15.28
-16.86
-18.99
-21.42
-23.58
-24.65
-23.86
-20.78
-15.60
-9.07
-2.30
3.63
8.03
10.73
12.02
12.39
12.26
11.82
11.09
9.96
8.46
6.78
5.27
4.30
4.07
4.52
5.31
5.99
6.21
5.92
5.31
4.72
4.39
4.26
4.05
3.36
1.90
-0.30
-2.96
-5.59
-7.78
-9.29
-10.18
-10.71
-11.25
-12.11
-13.46
-15.27
-17.36
-19.41
-21.04
-21.77
-21.17
-18.88
-14.80
-9.24
-2.88
3.35
8.54
12.16
14.12
14.78
14.63
14.06
13.19
11.97
10.36
8.46
6.55
4.98
4.00
3.66
3.76
4.00
4.09
3.84
3.24
2.38
1.44
0.56
-0.21
-0.96
-1.83
-2.97
-4.38
-5.97
-7.50
-8.74
-9.58
-10.02
-10.21
-10.33
-10.55
-11.05
-11.90
-13.17
-14.86
-16.85
-18.86
-20.36
-20.71
-19.32
-15.96
-10.89
-4.97
0.68
5.03
7.55
8.30
7.88
6.97
6.07
5.26
4.39
3.27
1.92
0.57
-0.48
-1.01
-1.06
-0.85
-0.62
-0.55
-0.65
-0.84
-1.00
-1.11
-1.24
-1.57
-2.32
-3.59
-5.36
-7.38
-9.34
-10.90
-11.91
-12.44
-12.77
-13.30
-14.37
-16.13
-18.39
-20.61
-22.04
-21.93
-19.80
-15.67
-10.05
-3.85
1.99
6.74
10.10
12.12
13.05
13.12
12.48
11.17
9.29
7.07
4.85
2.99
1.72
1.07
0.86
0.77
0.53
0.02
-0.66
-1.27
-1.59
-1.56
-1.34
-1.22
-1.46
-2.20
-3.32
-4.59
-5.82
-6.90
-7.94
-9.11
-10.59
-12.48
-14.81
-17.56
-20.54
-23.40
-25.54
-26.28
-25.03
-21.61
-16.34
-10.04
-3.71
1.77
5.91
8.65
10.27
11.10
11.38
11.14
10.31
8.87
6.97
5.01
3.52
2.90
3.24
4.18
5.13
5.53
5.14
4.17
3.07
2.27
1.93
1.84
1.62
0.89
-0.45
-2.20
-4.03
-5.64
-6.89
-7.88
-8.81
-9.91
-11.30
-13.03
-15.07
-17.32
-19.52
-21.34
-22.21
-21.58
-19.05
-14.62
-8.77
-2.38
3.62
8.47
11.86
13.87
14.78
14.86
14.21
12.85
10.83
8.40
5.97
4.04
2.94
2.76
3.31
4.23
5.15
5.84
6.19
6.23
6.04
5.66
5.09
4.23
3.01
1.36
-0.66
-2.88
-5.08
-7.06
-8.74
-10.21
-11.62
-13.09
-14.63
-16.17
-17.66
-19.12
-20.56
-21.88
-22.71
-22.46
-20.59
-16.91
-11.72
-5.82
-0.15
4.49
7.77
9.69
10.51
10.47
9.70
8.27
6.31
4.07
1.92
0.23
-0.76
-1.02
-0.64
0.12
1.02
1.90
2.68
3.34
3.84
4.04
3.80
2.94
1.44
-0.56
-2.79
-4.95
-6.81
-8.33
-9.66
-11.07
-12.82
-15.04
-17.57
-19.93
-21.45
-21.35
-19.15
-14.81
-8.86
-2.27
3.89
8.74
11.86
13.29
13.40
12.63
11.34
9.75
7.94
6.03
4.10
2.33
0.85
-0.26
-1.00
-1.38
-1.46
-1.33
-1.08
-0.84
-0.73
-0.87
-1.27
-1.90
-2.66
-3.47
-4.32
-5.18
-6.12
-7.22
-8.59
-10.36
-12.54
-14.92
-17.03
-18.16
-17.60
-14.98
-10.46
-4.70
1.32
6.69
10.85
13.66
15.24
15.81
15.54
14.56
13.01
11.08
9.06
7.19
5.63
4.45
3.64
3.18
3.06
3.26
3.72
4.27
4.71
4.82
4.43
3.53
2.23
0.76
-0.62
-1.78
-2.75
-3.76
-5.14
-7.21
-10.09
-13.65
-17.39
-20.54
-22.24
-21.78
-18.90
-13.87
-7.47
-0.77
5.20
9.74
12.56
13.75
13.67
12.70
11.16
9.33
7.40
5.53
3.87
2.54
1.62
1.15
1.08
1.26
1.51
1.65
1.56
1.23
0.70
0.04
-0.67
-1.39
-2.10
-2.78
-3.50
-4.33
-5.42
-6.90
-8.77
-10.91
-12.96
-14.38
-14.61
-13.21
-10.10
-5.57
-0.35
4.73
8.93
11.89
13.61
14.40
14.56
14.18
13.16
11.34
8.79
5.81
2.97
0.85
-0.23
-0.31
0.24
0.94
1.41
1.51
1.31
0.94
0.45
-0.22
-1.22
-2.60
-4.18
-5.63
-6.63
-7.14
-7.41
-7.88
-8.81
-10.07
-11.02
-10.86
-8.99
-5.36
-0.59
4.37
8.61
11.61
13.36
14.19
14.44
14.27
13.55
12.07
9.77
6.88
3.90
1.45
-0.02
-0.39
0.10
0.94
1.58
1.69
1.21
0.40
-0.40
-0.93
-1.13
-1.24
-1.60
-2.57
-4.32
-6.85
-10.01
-13.48
-16.89
-19.67
-21.14
-20.65
-17.81
-12.79
-6.29
0.63
6.90
11.75
14.94
16.57
16.97
16.44
15.22
13.53
11.58
9.66
7.98
6.66
5.69
4.92
4.16
3.21
1.93
0.30
-1.53
-3.26
-4.55
-5.12
-4.98
-4.42
-3.96
-4.11
-5.14
-7.09
-9.76
-12.97
-16.57
-20.31
-23.69
-25.88
-25.93
-23.18
-17.65
-10.23
-2.39
4.36
9.00
11.28
11.63
10.78
9.39
7.78
6.06
4.15
2.09
0.02
-1.75
-2.95
-3.37
-3.02
-2.11
-0.98
0.04
0.73
1.04
1.05
0.81
0.30
-0.55
-1.79
-3.34
-5.02
-6.63
-8.10
-9.54
-11.18
-13.17
-15.38
-17.34
-18.33
-17.66
-15.00
-10.54
-4.97
0.74
5.66
9.20
11.19
11.90
11.74
11.05
10.01
8.65
7.01
5.31
3.89
3.20
3.52
4.87
6.90
9.00
10.56
11.15
10.68
9.39
7.67
5.93
4.39
3.08
1.84
0.48
-1.19
-3.27
-5.78
-8.65
-11.71
-14.59
-16.74
-17.48
-16.24
-12.82
-7.57
-1.36
4.67
9.54
12.72
14.20
14.37
13.69
12.49
10.89
8.98
6.89
4.95
3.53
2.91
3.16
4.06
5.20
6.17
6.63
6.46
5.73
4.63
3.40
2.26
1.31
0.52
-0.23
-1.13
-2.34
-4.02
-6.24
-9.02
-12.14
-15.13
-17.25
-17.61
-15.55
-10.93
-4.34
3.10
10.06
15.51
18.98
20.64
21.02
20.70
20.05
19.15
17.92
16.30
14.44
12.64
11.32
10.80
11.20
12.35
13.85
15.28
16.30
16.81
16.89
16.71
16.40
16.01
15.50
14.80
13.91
12.86
11.79
10.90
10.35
10.22
10.50
11.10
11.96
13.11
14.65
16.57
18.56
20.01
20.09
18.04
13.55
6.82
-1.52
-10.73
-20.27
-29.93
-39.75
-49.75
-59.69
-68.93
-76.48
-81.26
-82.42
-79.71
-73.59
-65.20
-56.01
-47.41
-40.30
-34.87
-30.83
-27.64
-24.89
-22.42
-20.28
-18.48
-16.93
-15.44
-13.86
-12.30
-11.08
-10.71
-11.48
-13.23
-15.27
-16.62
-16.34
-13.98
-9.80
-4.62
0.57
4.96
8.22
10.46
12.00
13.15
14.05
14.75
15.27
15.73
16.31
17.11
18.11
19.16
20.14
21.01
21.86
22.83
24.00
25.29
26.55
27.59
28.33
28.80
29.16
29.56
30.12
30.81
31.52
32.05
32.13
31.55
30.17
27.96
25.12
22.05
19.31
17.43
16.70
16.88
17.17
16.39
13.39
7.38
-1.71
-13.30
-26.28
-39.31
-50.96
-59.87
-64.86
-65.09
-60.34
-51.12
-38.66
-24.58
-10.46
2.51
13.67
22.84
30.23
36.36
42.03
48.28
56.18
66.47
79.20
93.57
108.07
121.01
131.17
138.31
143.35
148.13
154.88
165.45
180.62
199.66
220.41
239.85
254.90
262.91
262.87
255.68
243.66
229.72
216.65
206.71
201.33
200.72
203.21
206.05
206.31
201.77
191.60
176.48
158.30
139.35
121.44
104.38
87.69
71.40
56.19
42.67
30.71
19.61
8.46
-3.35
-18.80
-38.91
-61.76
-83.73
-102.15
-116.77
-129.07
-140.92
-153.55
-173.42
-203.34
-240.51
-278.56
-312.66
-341.97
-368.40
-394.12
-420.01
-455.26
-503.76
-560.98
-616.85
-663.47
-698.74
-724.65
-744.42
-761.17
-790.75
-842.57
-913.57
-989.44
-1054.05
-1096.19
-1110.79
-1098.21
-981.70
-737.52
-407.12
-70.33
213.34
426.26
575.66
673.47
728.12
745.80
720.96
658.85
576.80
499.49
445.56
420.09
416.62
424.00
432.36
426.29
401.91
364.41
325.46
294.06
272.20
257.33
246.48
238.54
227.91
212.06
192.10
171.95
154.05
138.14
123.06
108.63
95.89
83.22
69.75
55.76
42.92
32.39
24.16
17.69
12.71
9.30
6.54
3.70
0.47
-2.94
-6.35
-9.94
-13.90
-18.17
-22.50
-26.52
-29.98
-32.96
-35.68
-38.50
-41.77
-45.65
-49.86
-53.63
-55.84
-55.31
-51.32
-43.72
-33.15
-20.79
-8.02
3.88
13.98
21.72
26.91
29.65
30.25
29.19
27.02
24.34
21.66
19.37
17.77
17.08
17.49
19.16
22.17
26.36
31.26
36.16
40.29
43.19
44.95
46.22
47.95
50.88
55.17
60.21
64.96
68.36
69.87
69.66
68.59
68.04
69.73
75.48
86.66
103.51
124.51
146.12
163.49
171.83
168.01
151.53
124.44
90.18
52.06
12.12
-28.93
-70.90
-113.04
-153.42
-189.10
-217.08
-235.44
-243.89
-243.80
-237.36
-226.79
-213.80
-199.47
-184.68
-170.38
-157.67
-147.40
-139.83
-134.29
-129.44
-123.83
-116.62
-108.09
-99.49
-92.53
-88.58
-87.96
-89.65
-91.56
-91.19
-86.41
-76.22
-60.99
-42.35
-22.59
-4.01
11.75
23.97
32.78
38.79
42.64
44.73
45.20
44.18
42.03
39.48
37.52
36.96
38.15
40.77
43.94
46.62
48.02
47.90
46.50
44.37
41.95
39.44
36.69
33.32
28.93
23.24
16.25
8.25
-0.07
-7.69
-13.25
-15.32
-12.74
-4.99
7.54
23.59
41.47
59.62
77.08
93.61
109.48
124.94
139.87
153.68
165.62
175.22
182.67
188.97
195.68
204.44
216.32
231.24
247.60
262.51
272.49
274.51
266.99
250.38
226.86
199.52
171.29
144.16
118.96
95.65
73.78
52.95
33.01
14.33
-2.06
-14.32
-19.99
-16.80
-3.55
18.92
47.51
77.45
103.59
121.86
130.36
129.73
122.75
113.45
105.89
103.24
106.94
116.59
130.22
144.97
157.85
166.45
169.26
165.73
156.22
141.74
123.75
103.97
84.05
65.39
48.94
35.06
23.60
13.97
5.27
-3.65
-13.85
-26.03
-40.13
-55.19
-69.43
-80.74
-87.29
-88.20
-83.81
-75.46
-64.95
-53.89
-43.37
-34.00
-26.38
-21.43
-20.52
-25.05
-35.85
-52.59
-73.68
-96.86
-119.84
-141.16
-160.47
-178.45
-196.46
-216.08
-238.96
-266.57
-299.75
-338.00
-378.57
-416.17
-443.75
-454.68
-445.26
-416.34
-372.90
-321.90
-269.39
-218.93
-172.01
-129.88
-95.20
-71.80
-62.52
-66.72
-79.21
-91.94
-97.38
-91.82
-76.54
-56.56
-38.18
-26.99
-27.09
-41.33
-71.18
-115.57
-169.82
-225.61
-273.28
-305.74
-321.68
-326.09
-327.29
-332.31
-343.10
-356.00
-364.44
-363.08
-350.72
-330.39
-306.96
-283.97
-262.09
-239.51
-214.15
-185.59
-155.72
-127.69
-104.06
-85.32
-69.63
-53.76
-34.63
-10.67
17.78
48.75
79.49
107.46
130.93
149.34
163.26
174.02
183.13
191.60
199.41
205.32
207.46
204.15
194.94
181.06
165.10
150.06
138.17
130.22
125.46
122.38
119.57
116.36
112.93
109.83
107.38
105.33
102.92
99.28
93.90
86.76
78.10
68.18
57.18
45.51
34.18
25.06
20.40
22.01
30.36
44.18
60.79
76.91
89.76
97.64
100.06
97.39
90.57
80.79
69.48
58.29
48.87
42.56
39.95
40.70
43.62
47.04
49.42
49.74
47.76
43.90
39.01
33.99
29.55
26.02
23.34
21.07
18.55
15.16
10.57
4.83
-1.67
-8.31
-14.41
-19.20
-21.77
-21.10
-16.08
-6.05
8.85
27.41
47.46
66.43
82.08
93.00
98.91
100.37
98.49
94.38
88.97
82.86
76.38
69.66
62.76
55.73
48.70
41.93
35.74
30.50
26.39
23.38
21.15
19.21
17.03
14.35
11.22
8.17
6.02
5.72
8.11
13.57
21.83
31.80
41.52
48.52
50.42
45.85
35.22
20.96
7.07
-2.09
-3.28
4.56
19.94
39.42
58.83
74.42
83.69
85.75
81.08
71.25
58.44
45.02
33.05
23.89
17.95
14.79
13.42
12.76
11.93
10.44
8.17
5.15
1.48
-2.78
-7.65
-13.16
-19.36
-26.09
-32.95
-39.15
-43.69
-45.65
-44.69
-41.36
-37.17
-34.14
-33.96
-37.14
-42.44
-47.14
-47.97
-42.31
-29.32
-10.19
12.20
34.38
53.31
67.18
75.46
78.71
78.04
74.74
70.04
65.05
60.64
57.41
55.59
55.03
55.19
55.33
54.71
52.88
49.92
46.47
43.61
42.33
43.13
45.70
49.10
52.18
54.25
55.30
55.67
55.56
54.32
50.49
42.46
29.51
12.64
-5.35
-20.68
-29.90
-31.13
-24.64
-12.68
1.35
13.99
22.62
26.00
24.43
19.35
12.82
6.76
2.52
0.68
1.23
3.79
7.81
12.51
16.73
18.92
17.48
11.29
0.20
-14.69
-31.33
-47.26
-60.34
-69.17
-73.28
-73.01
-69.35
-63.74
-57.97
-53.78
-52.35
-53.75
-56.68
-58.68
-56.92
-49.20
-34.90
-15.20
7.20
29.00
47.26
60.15
67.16
68.93
66.72
61.95
55.86
49.41
43.33
38.23
34.53
32.41
31.69
31.88
32.51
33.40
34.95
37.91
43.00
50.35
59.22
68.11
75.21
78.97
78.54
73.94
65.92
55.78
44.95
34.61
25.36
17.07
9.00
0.33
-9.29
-19.30
-28.26
-34.38
-36.29
-33.65
-27.39
-19.28
-11.28
-4.86
-0.61
1.68
2.62
2.55
1.25
-2.14
-8.66
-18.90
-32.52
-48.10
-63.47
-76.29
-84.69
-87.66
-85.26
-78.59
-69.60
-60.73
-54.29
-51.81
-53.37
-57.52
-61.71
-63.30
-60.57
-53.29
-42.71
-30.82
-19.53
-9.99
-2.44
3.57
8.71
13.50
18.19
22.82
27.37
31.81
36.07
40.00
43.32
45.68
46.85
46.87
46.04
45.05
44.84
46.48
50.86
58.14
67.29
75.95
81.00
79.69
70.93
55.85
37.47
19.51
4.91
-5.04
-10.59
-12.79
-12.58
-10.40
-6.49
-1.30
4.13
8.44
10.39
9.44
5.82
0.40
-5.83
-12.02
-17.70
-22.69
-26.98
-30.66
-33.90
-36.99
-40.22
-43.76
-47.48
-50.92
-53.65
-55.57
-57.28
-59.92
-64.56
-71.41
-79.30
-85.82
-88.24
-84.76
-75.32
-61.78
-47.02
-33.73
-23.43
-16.12
-10.76
-6.07
-1.29
3.62
8.14
11.89
14.89
17.72
21.12
25.49
30.50
35.12
38.10
38.60
36.78
33.85
31.70
32.20
36.49
44.57
55.15
65.97
74.22
77.25
73.26
61.91
44.61
24.36
4.94
-10.09
-18.34
-19.15
-13.49
-3.45
8.49
20.04
29.34
35.13
36.73
34.13
27.89
19.07
8.91
-1.44
-11.15
-19.89
-27.84
-35.58
-44.02
-54.06
-66.07
-79.43
-92.36
-102.25
-106.57
-103.91
-94.66
-80.97
-65.97
-52.58
-42.53
-36.07
-32.19
-29.43
-26.48
-22.58
-17.46
-11.20
-4.03
3.72
11.55
18.84
24.93
29.35
32.02
33.29
33.95
34.89
36.88
40.23
44.78
49.80
54.24
57.00
57.18
54.49
49.28
42.51
35.44
29.19
24.44
21.26
19.24
17.73
16.11
13.99
11.22
7.84
3.99
-0.15
-4.37
-8.41
-12.03
-15.02
-17.23
-18.67
-19.41
-19.60
-19.38
-18.87
-18.18
-17.41
-16.60
-15.79
-14.92
-13.91
-12.75
-11.53
-10.48
-9.85
-9.76
-10.18
-10.89
-11.61
-12.19
-12.60
-12.95
-13.31
-13.63
-13.71
-13.25
-11.99
-9.86
-7.08
-4.21
-1.90
-0.71
-0.80
-1.80
-2.87
-3.02
-1.52
1.84
6.65
12.11
17.30
21.50
24.27
25.48
25.19
23.56
20.85
17.34
13.36
9.19
5.07
1.12
-2.55
-5.82
-8.54
-10.58
-11.88
-12.52
-12.75
-12.91
-13.29
-14.09
-15.30
-16.75
-18.20
-19.43
-20.37
-21.14
-21.95
-23.07
-24.62
-26.57
-28.66
-30.43
-31.32
-30.79
-28.48
-24.37
-18.75
-12.23
-5.60
0.36
5.07
8.22
9.81
10.09
9.44
8.31
7.12
6.28
6.09
6.72
8.16
10.22
12.57
14.80
16.59
17.76
18.30
18.32
17.97
17.32
16.40
15.16
13.57
11.65
9.43
6.97
4.30
1.45
-1.52
-4.55
-7.58
-10.55
-13.38
-15.95
-18.07
-19.48
-19.96
-19.36
-17.65
-14.94
-11.41
-7.26
-2.72
2.01
6.71
11.21
15.35
19.04
22.19
24.63
26.12
26.29
24.83
21.67
17.07
11.69
6.45
2.37
0.27
0.57
3.22
7.73
13.21
18.61
22.80
24.78
23.90
20.07
13.81
6.16
-1.59
-8.34
-13.49
-17.09
-19.65
-21.74
-23.70
-25.44
-26.58
-26.78
-25.97
-24.39
-22.57
-20.93
-19.72
-18.91
-18.33
-17.85
-17.48
-17.34
-17.54
-18.08
-18.80
-19.37
-19.46
-18.87
-17.56
-15.68
-13.55
-11.52
-9.87
-8.72
-8.01
-7.58
-7.20
-6.79
-6.44
-6.42
-7.04
-8.49
-10.67
-13.16
-15.32
-16.43
-15.95
-13.55
-9.16
-2.92
4.87
13.69
22.79
31.23
37.98
42.21
43.47
41.81
37.80
32.23
25.94
19.62
13.86
9.16
6.11
5.25
6.92
11.00
16.76
22.84
27.61
29.59
27.97
22.82
15.11
6.32
-1.96
-8.52
-12.75
-14.64
-14.63
-13.37
-11.54
-9.81
-8.80
-9.04
-10.84
-14.05
-17.97
-21.45
-23.19
-22.30
-18.60
-12.80
-6.22
-0.34
3.76
5.66
5.64
4.40
2.71
1.11
-0.15
-1.10
-1.83
-2.42
-2.85
-3.06
-3.04
-2.81
-2.47
-2.17
-2.00
-2.03
-2.25
-2.65
-3.16
-3.76
-4.41
-5.12
-5.90
-6.74
-7.69
-8.75
-9.99
-11.45
-13.13
-14.88
-16.36
-17.11
-16.62
-14.62
-11.15
-6.69
-1.99
2.19
5.32
7.25
8.15
8.38
8.19
7.72
6.96
5.85
4.46
2.97
1.70
0.88
0.64
0.88
1.37
1.84
2.04
1.83
1.21
0.26
-0.86
-1.98
-2.98
-3.79
-4.40
-4.88
-5.34
-5.90
-6.70
-7.77
-8.99
-9.99
-10.23
-9.15
-6.43
-2.16
3.07
8.38
12.83
15.79
17.08
16.96
15.90
14.34
12.60
10.81
9.03
7.40
6.07
5.23
4.91
5.02
5.30
5.51
5.52
5.35
5.20
5.27
5.68
6.35
7.02
7.29
6.78
5.19
2.41
-1.47
-6.14
-11.14
-15.91
-19.85
-22.39
-23.13
-21.96
-19.10
-15.09
-10.69
-6.64
-3.47
-1.42
-0.42
-0.23
-0.56
-1.17
-1.89
-2.62
-3.33
-3.94
-4.41
-4.68
-4.70
-4.45
-3.95
-3.25
-2.41
-1.54
-0.66
0.22
1.19
2.33
3.67
5.09
6.26
6.73
6.03
3.90
0.40
-4.01
-8.60
-12.51
-15.01
-15.63
-14.22
-11.04
-6.63
-1.81
2.53
5.64
7.11
7.00
5.75
4.00
2.35
1.15
0.49
0.22
0.10
-0.14
-0.70
-1.66
-2.95
-4.35
-5.53
-6.18
-6.18
-5.61
-4.78
-4.08
-3.84
-4.19
-5.03
-6.06
-6.92
-7.40
-7.46
-7.39
-7.64
-8.70
-10.80
-13.72
-16.79
-19.04
-19.55
-17.84
-14.04
-8.87
-3.37
1.48
5.05
7.32
8.74
9.98
11.63
13.88
16.51
19.05
21.02
22.19
22.63
22.59
22.26
21.64
20.52
18.69
16.12
13.12
10.36
8.55
8.27
9.60
12.05
14.64
16.24
15.95
13.48
9.33
4.68
1.05
-0.26
1.38
5.59
10.96
15.38
16.47
12.35
2.36
-12.46
-29.36
-44.51
-54.13
-55.68
-48.66
-34.62
-16.49
2.53
19.85
33.89
43.94
49.78
51.43
49.11
43.55
36.12
28.69
23.13
20.67
21.42
24.29
27.32
28.43
26.12
19.94
10.60
-0.42
-11.47
-21.30
-29.32
-35.58
-40.52
-44.56
-47.87
-50.32
-51.54
-51.25
-49.49
-46.80
-44.06
-42.13
-41.33
-41.13
-40.25
-37.13
-30.75
-21.17
-9.65
1.89
11.58
18.42
22.44
24.57
26.09
28.17
31.49
36.22
41.99
47.97
53.05
56.09
56.32
53.73
49.30
44.72
41.89
42.16
45.80
51.92
58.92
65.19
69.74
72.51
74.26
76.10
78.91
82.66
86.05
86.30
79.79
63.23
35.31
-1.96
-43.15
-80.69
-107.44
-119.20
-116.23
-102.82
-85.28
-69.46
-58.82
-54.05
-53.79
-56.07
-59.34
-62.82
-66.29
-69.61
-72.50
-74.64
-75.93
-76.66
-77.46
-78.98
-81.59
-85.16
-89.17
-92.87
-95.46
-96.19
-94.42
-89.66
-81.61
-70.39
-56.68
-41.57
-26.45
-12.54
-0.70
8.72
15.78
20.74
23.99
26.02
27.53
29.35
32.35
37.12
43.74
51.72
60.10
67.76
73.79
77.75
79.69
80.16
79.89
79.54
79.52
79.97
80.80
81.97
83.65
86.27
90.51
97.08
106.35
117.89
130.13
140.32
144.86
140.26
124.08
95.73
56.77
10.57
-38.46
-85.76
-127.28
-159.98
-181.92
-192.40
-191.93
-182.19
-165.73
-145.63
-124.89
-105.89
-90.00
-77.52
-67.77
-59.61
-51.99
-44.40
-37.03
-30.59
-25.88
-23.36
-22.85
-23.52
-24.18
-23.60
-21.00
-16.28
-10.17
-3.96
0.91
3.39
3.20
0.85
-2.49
-5.53
-7.24
-7.07
-4.97
-1.29
3.46
8.64
13.55
17.47
19.75
19.99
18.23
15.07
11.58
8.93
8.03
9.27
12.43
16.88
21.97
27.29
32.67
38.12
43.56
48.83
53.79
58.40
62.68
66.44
69.11
69.85
68.02
63.66
57.56
50.80
43.96
36.70
27.98
17.03
4.32
-8.21
-17.97
-23.09
-23.55
-21.31
-19.28
-19.90
-24.15
-31.41
-40.17
-48.92
-56.66
-62.90
-67.41
-69.96
-70.44
-68.96
-65.90
-61.80
-57.02
-51.65
-45.60
-38.96
-32.19
-26.09
-21.51
-18.89
-17.94
-17.70
-16.83
-14.17
-9.08
-1.67
7.34
16.97
26.29
34.67
41.77
47.52
51.86
54.62
55.59
54.57
51.63
47.09
41.49
35.45
29.42
23.61
18.14
13.14
8.94
6.03
4.81
5.41
7.57
10.83
14.77
19.24
24.34
29.98
35.53
39.59
40.39
36.51
27.76
15.50
2.37
-8.68
-15.38
-17.00
-14.35
-9.38
-4.33
-1.02
-0.51
-3.00
-7.95
-14.35
-20.98
-26.66
-30.54
-32.22
-31.85
-30.02
-27.57
-25.44
-24.44
-25.20
-27.93
-32.40
-37.83
-42.96
-46.40
-46.98
-44.10
-37.92
-29.23
-19.28
-9.37
-0.60
6.36
11.33
14.62
16.81
18.55
20.30
22.20
24.10
25.71
26.87
27.60
28.09
28.55
29.06
29.56
29.93
30.12
30.21
30.29
30.35
30.19
29.35
27.38
23.96
19.11
13.23
6.88
0.72
-4.70
-8.96
-11.67
-12.50
-11.17
-7.63
-2.20
4.42
11.17
16.98
21.02
23.00
23.07
21.76
19.71
17.54
15.75
14.71
14.64
15.54
17.16
19.01
20.44
20.90
20.08
18.05
15.24
12.26
9.72
8.02
7.24
7.20
7.47
7.59
7.13
5.78
3.43
0.15
-3.85
-8.20
-12.43
-15.97
-18.23
-18.75
-17.32
-14.16
-9.88
-5.32
-1.27
1.80
3.82
5.08
5.97
6.74
7.45
7.99
8.23
8.16
7.91
7.66
7.57
7.72
8.07
8.59
9.24
9.97
10.79
11.61
12.31
12.69
12.49
11.48
9.52
6.65
3.07
-0.91
-4.99
-9.00
-12.84
-16.50
-19.96
-23.10
-25.76
-27.73
-28.82
-28.91
-28.02
-26.32
-24.09
-21.68
-19.33
-17.13
-15.03
-12.88
-10.62
-8.26
-5.96
-3.90
-2.15
-0.68
0.61
1.83
3.04
4.29
5.59
7.06
8.79
10.85
13.16
15.44
17.33
18.42
18.49
17.56
15.97
14.25
13.01
12.78
13.88
16.36
20.07
24.69
29.82
35.18
40.55
45.89
51.19
56.32
60.84
63.99
64.75
62.09
55.30
44.32
29.87
13.41
-3.21
-18.10
-29.88
-37.93
-42.53
-44.62
-45.42
-46.07
-47.32
-49.45
-52.31
-55.41
-57.93
-58.93
-57.47
-53.10
-46.02
-37.31
-28.51
-21.07
-15.83
-12.70
-10.90
-9.39
-7.39
-4.58
-1.07
2.82
6.77
10.45
13.55
15.78
16.93
17.07
16.56
15.89
15.43
15.19
14.79
13.63
11.24
7.60
3.17
-1.22
-4.63
-6.38
-6.20
-4.21
-0.90
3.04
6.81
9.71
11.18
11.02
9.41
6.83
3.92
1.18
-1.10
-2.97
-4.57
-6.05
-7.37
-8.31
-8.56
-7.94
-6.49
-4.52
-2.53
-1.03
-0.35
-0.59
-1.59
-3.10
-4.89
-6.91
-9.25
-12.04
-15.33
-19.06
-23.11
-27.36
-31.79
-36.34
-40.87
-45.04
-48.36
-50.45
-51.24
-51.11
-50.71
-50.73
-51.51
-52.96
-54.68
-56.10
-56.69
-55.85
-52.88
-46.90
-37.19
-23.56
-6.75
11.60
29.34
44.52
55.96
63.53
67.99
70.55
72.32
74.06
76.03
78.13
80.12
81.85
83.31
84.75
86.55
89.13
92.86
97.90
104.13
110.98
117.53
122.61
125.27
125.37
123.94
123.11
125.48
133.08
146.40
164.10
183.41
201.26
215.32
224.78
230.35
233.68
236.59
240.39
245.50
251.44
256.84
259.56
257.00
246.58
226.45
196.41
158.28
115.77
73.57
36.03
5.82
-16.73
-33.50
-47.52
-61.62
-77.39
-94.90
-113.10
-130.70
-146.70
-160.48
-171.41
-178.57
-180.86
-177.77
-170.09
-160.12
-150.81
-144.38
-141.04
-138.63
-133.73
-123.35
-106.51
-84.74
-61.40
-40.22
-23.88
-13.30
-7.68
-5.10
-3.19
0.21
6.56
16.18
28.01
39.86
49.10
53.67
52.95
47.92
40.65
33.23
26.91
21.83
17.34
12.66
7.27
1.02
-6.17
-14.43
-23.90
-34.31
-44.81
-54.21
-61.63
-67.25
-72.54
-79.79
-90.99
-106.93
-126.85
-148.99
-171.56
-193.24
-213.04
-229.66
-241.24
-245.86
-242.78
-233.45
-221.33
-210.38
-202.85
-197.84
-191.58
-179.54
-158.92
-130.26
-97.15
-64.40
-35.82
-12.83
5.68
22.43
40.35
61.23
84.87
108.78
128.69
139.77
138.22
122.41
93.13
52.93
4.95
-47.64
-101.65
-153.22
-197.51
-229.47
-245.39
-244.52
-229.66
-206.18
-179.90
-155.20
-134.22
-117.46
-105.10
-97.90
-96.90
-102.32
-112.38
-123.05
-129.22
-126.56
-113.32
-90.93
-63.28
-34.98
-9.66
10.96
26.96
39.45
49.57
58.01
64.85
69.97
73.32
75.11
75.67
75.28
74.09
72.23
69.96
67.79
66.47
66.63
68.56
71.98
76.19
80.35
83.91
86.91
89.77
92.96
96.33
98.64
97.46
89.58
72.03
43.38
4.94
-38.80
-80.64
-112.43
-127.43
-122.57
-99.56
-64.38
-25.36
9.55
34.92
48.87
52.51
48.65
40.33
30.04
19.67
10.71
4.39
1.40
1.47
3.15
4.16
2.16
-4.31
-15.24
-29.15
-43.63
-56.22
-65.17
-69.92
-71.15
-70.33
-69.18
-68.91
-69.69
-70.55
-69.65
-65.10
-55.77
-41.95
-25.25
-8.15
6.98
18.71
26.88
32.43
36.67
40.68
44.80
48.75
52.03
54.33
55.84
57.15
58.94
61.57
64.98
68.61
71.62
73.21
72.83
70.32
65.92
60.08
53.30
45.97
38.31
30.48
22.76
15.71
10.23
7.30
7.66
11.42
17.90
25.65
32.81
37.61
38.80
35.96
29.57
20.86
11.46
2.95
-3.48
-7.35
-8.85
-8.57
-7.09
-4.62
-0.95
4.41
11.65
20.39
29.45
37.13
41.68
41.83
37.18
28.32
16.58
3.60
-9.10
-20.46
-29.85
-36.99
-41.66
-43.62
-42.73
-39.21
-33.89
-28.08
-23.28
-20.56
-20.21
-21.70
-24.03
-26.21
-27.67
-28.27
-28.19
-27.62
-26.64
-25.26
-23.49
-21.48
-19.44
-17.62
-16.16
-15.06
-14.15
-13.06
-11.27
-8.18
-3.25
3.67
12.23
21.59
30.68
38.53
44.63
48.87
51.35
52.09
50.89
47.47
41.90
34.85
27.61
21.68
18.22
17.56
19.11
21.60
23.61
24.04
22.32
18.41
12.61
5.43
-2.56
-10.68
-18.25
-24.63
-29.33
-32.26
-33.67
-34.08
-34.14
-34.34
-34.98
-36.04
-37.30
-38.35
-38.76
-38.05
-35.81
-31.76
-25.82
-18.28
-9.74
-1.15
6.46
12.17
15.49
16.43
15.49
13.43
10.96
8.58
6.46
4.65
3.16
2.11
1.67
1.87
2.54
3.27
3.59
3.24
2.28
1.07
0.07
-0.42
-0.45
-0.38
-0.76
-1.98
-4.03
-6.44
-8.32
-8.76
-7.12
-3.35
1.94
7.75
12.96
16.76
18.81
19.20
18.21
16.08
12.92
8.76
3.74
-1.70
-6.91
-11.21
-14.19
-15.86
-16.67
-17.26
-18.12
-19.39
-20.80
-21.77
-21.72
-20.27
-17.47
-13.79
-10.04
-7.21
-6.13
-7.24
-10.28
-14.35
-18.03
-19.85
-18.75
-14.49
-7.76
0.08
7.41
12.98
16.12
16.88
15.75
13.39
10.42
7.34
4.61
2.65
1.84
2.40
4.27
7.08
10.11
12.47
13.31
12.13
8.92
4.23
-0.90
-5.24
-7.73
-7.80
-5.47
-1.41
3.37
7.58
10.04
9.79
6.41
0.15
-7.98
-16.32
-22.89
-25.81
-23.74
-16.21
-3.73
12.26
29.69
46.20
59.55
67.86
69.97
65.66
55.84
42.43
27.94
14.90
5.14
-0.67
-3.00
-3.18
-2.75
-3.05
-4.88
-8.59
-14.02
-20.78
-28.13
-35.19
-41.07
-45.11
-47.15
-47.50
-46.78
-45.63
-44.44
-43.28
-41.97
-40.28
-38.03
-35.16
-31.70
-27.81
-23.83
-20.39
-18.35
-18.57
-21.49
-26.72
-32.85
-37.78
-39.33
-36.09
-27.96
-16.18
-2.89
9.61
19.54
26.02
29.01
29.10
27.08
23.79
20.00
16.41
13.61
11.94
11.39
11.41
11.16
9.68
6.44
1.68
-3.51
-7.39
-8.21
-4.86
2.66
13.23
24.95
35.80
44.25
49.55
51.70
51.13
48.35
43.84
38.08
31.68
25.45
20.21
16.48
14.31
13.15
12.14
10.52
7.98
4.73
1.26
-2.06
-5.36
-9.21
-14.30
-20.99
-28.94
-37.16
-44.46
-49.95
-53.52
-55.70
-57.34
-58.85
-59.79
-58.87
-54.56
-45.81
-32.79
-17.14
-1.43
11.52
19.42
20.99
15.86
4.57
-11.16
-28.08
-41.42
-45.83
-37.26
-14.99
17.30
52.40
82.08
100.08
104.28
96.69
81.89
64.69
48.46
34.78
24.09
16.60
12.68
12.55
15.66
20.38
24.14
24.32
19.33
9.47
-2.89
-13.85
-19.43
-16.91
-5.92
11.39
31.29
49.70
63.61
71.80
74.72
73.83
70.70
66.36
61.11
54.92
47.91
40.70
34.34
29.79
27.35
26.29
25.12
22.34
17.27
10.51
3.80
-0.81
-1.93
0.53
5.29
10.27
13.40
13.33
9.74
3.24
-5.15
-14.35
-23.52
-32.06
-39.44
-45.10
-48.58
-49.57
-47.99
-43.61
-35.76
-23.15
-4.45
20.81
51.31
83.69
113.34
135.85
148.40
150.35
142.97
128.44
109.04
86.86
64.08
43.21
26.80
16.77
13.49
15.39
19.39
21.95
20.35
13.54
2.26
-11.51
-25.44
-37.74
-47.56
-55.04
-60.88
-65.98
-71.17
-77.11
-84.30
-92.89
-102.49
-111.98
-119.44
-122.72
-120.02
-110.63
-95.23
-75.72
-54.67
-34.61
-17.52
-4.48
4.26
9.24
11.53
12.52
13.61
15.84
19.67
24.90
30.85
36.59
41.33
44.51
45.90
45.52
43.50
40.12
35.74
30.85
26.07
22.01
19.15
17.64
17.20
17.02
15.97
13.04
7.82
1.00
-5.49
-8.96
-6.87
1.94
16.51
33.53
48.12
55.30
51.69
36.72
13.03
-14.23
-38.86
-55.42
-60.65
-54.20
-38.36
-17.18
4.81
23.71
36.92
43.38
43.47
38.59
30.74
22.02
14.11
7.98
3.75
0.84
-1.72
-4.86
-9.30
-15.31
-22.86
-31.51
-40.35
-47.89
-52.24
-51.62
-45.07
-33.19
-18.21
-3.38
8.17
14.65
16.22
14.74
12.78
12.46
14.64
18.99
24.45
30.02
35.16
39.85
44.24
48.29
51.72
54.13
55.42
55.96
56.51
57.85
60.33
63.63
66.88
69.07
69.65
68.81
67.47
66.77
67.53
69.71
72.41
74.34
74.54
73.07
71.24
71.30
75.70
86.32
103.84
127.53
155.39
184.49
211.55
233.57
248.53
255.95
257.01
254.03
249.55
245.15
240.91
235.55
227.37
215.32
199.72
182.08
164.42
148.37
134.70
123.37
113.99
106.27
100.13
95.64
92.63
90.61
88.86
86.62
83.42
79.16
74.02
68.36
62.50
56.64
50.88
45.27
39.79
34.27
28.45
21.88
14.17
5.13
-5.02
-15.56
-25.54
-34.06
-40.74
-45.93
-50.60
-55.93
-62.75
-71.05
-79.88
-87.91
-93.89
-97.35
-98.90
-100.09
-103.05
-110.25
-124.14
-146.46
-177.08
-212.85
-247.33
-272.03
-279.30
-265.69
-233.97
-192.51
-151.90
-120.53
-101.47
-92.28
-87.76
-83.51
-78.59
-75.43
-77.81
-88.49
-108.19
-136.10
-170.94
-211.35
-254.92
-297.23
-331.22
-348.56
-342.56
-310.92
-256.93
-188.57
-115.95
-48.59
6.48
45.27
66.64
71.89
64.54
49.96
34.43
23.54
20.50
25.18
34.35
43.03
46.05
39.78
23.14
-1.77
-29.83
-53.97
-67.52
-66.92
-53.69
-34.37
-18.08
-12.69
-21.36
-41.50
-66.35
-88.48
-103.04
-109.04
-108.46
-104.08
-97.51
-88.63
-76.29
-59.64
-39.32
-17.94
0.35
10.67
8.63
-8.68
-42.09
-89.82
-147.23
-207.06
-260.36
-298.13
-313.47
-303.62
-270.84
-221.74
-165.05
-108.78
-58.25
-15.72
18.20
42.71
55.91
55.67
41.70
17.31
-10.73
-34.33
-47.38
-48.17
-39.79
-28.34
-20.08
-19.29
-27.63
-44.66
-68.76
-97.20
-126.06
-150.23
-164.51
-165.53
-153.57
-133.05
-111.03
-94.58
-87.92
-90.99
-99.87
-108.61
-111.56
-105.35
-89.56
-66.46
-39.96
-14.26
7.25
22.77
32.27
37.08
39.07
39.91
40.64
41.69
43.37
46.15
50.74
57.83
67.55
79.27
91.75
103.60
113.92
122.65
130.71
139.54
150.48
163.95
178.94
192.77
201.66
201.50
189.09
162.95
123.95
75.45
22.86
-27.12
-67.75
-93.80
-102.93
-96.38
-78.59
-55.81
-34.12
-17.83
-8.59
-5.75
-7.29
-11.03
-15.38
-19.72
-24.31
-29.95
-37.58
-47.92
-60.96
-75.97
-91.62
-106.59
-120.05
-131.90
-142.49
-151.95
-159.68
-164.18
-163.42
-155.48
-139.27
-114.95
-83.91
-48.69
-12.44
21.56
50.62
73.15
88.99
99.29
105.88
110.63
114.80
118.99
123.30
127.74
132.39
137.40
142.84
148.60
154.52
160.66
167.38
175.20
184.40
194.62
204.67
212.77
217.23
217.21
213.29
207.22
200.90
194.95
187.74
175.45
153.56
119.02
72.19
17.42
-37.95
-85.75
-119.16
-134.34
-130.78
-111.12
-80.57
-46.29
-16.48
1.23
1.72
-15.84
-47.50
-85.97
-123.07
-152.71
-172.43
-183.36
-188.72
-191.72
-193.97
-194.95
-192.40
-183.30
-164.89
-135.57
-95.59
-47.33
4.85
55.37
98.69
130.66
149.37
155.44
151.50
141.21
128.35
115.98
106.02
99.17
95.02
92.49
90.37
87.90
85.25
83.61
84.85
90.80
102.49
119.81
141.38
165.02
188.09
207.84
221.61
227.24
223.53
210.89
191.41
168.41
145.30
124.33
106.04
89.39
72.89
55.71
38.26
22.09
9.04
0.48
-3.12
-2.09
2.59
9.44
16.36
20.68
19.57
10.93
-5.45
-27.17
-49.55
-67.28
-76.63
-77.39
-73.33
-70.80
-76.25
-93.62
-123.02
-160.91
-201.36
-237.81
-264.23
-275.93
-269.93
-245.55
-204.79
-152.47
-95.46
-41.19
4.16
36.90
56.25
63.84
62.68
56.28
47.86
39.92
34.08
31.03
30.65
32.33
35.31
38.96
42.91
46.95
50.83
54.15
56.36
57.05
56.39
55.32
55.48
58.32
64.05
70.74
74.30
69.65
52.96
23.72
-14.10
-52.79
-83.24
-97.97
-93.67
-72.01
-38.79
-1.70
32.06
57.54
72.69
77.94
75.31
67.45
56.93
46.05
36.65
29.98
26.48
25.58
25.77
25.02
21.48
13.99
2.41
-12.66
-30.12
-48.80
-67.56
-85.30
-100.92
-113.46
-122.39
-127.79
-130.38
-131.17
-131.09
-130.60
-129.58
-127.44
-123.26
-116.12
-105.12
-89.74
-69.94
-46.32
-20.11
7.12
33.83
58.90
81.65
101.69
118.33
130.22
135.34
131.57
117.82
94.95
66.21
36.69
12.06
-3.12
-6.53
1.44
18.11
39.58
61.80
81.39
96.21
105.41
109.39
109.45
107.32
104.42
101.43
98.04
93.34
86.41
77.04
66.05
55.13
46.28
41.01
39.86
42.07
45.56
47.29
43.78
31.99
10.21
-21.02
-58.79
-98.21
-133.76
-160.69
-176.20
-179.88
-173.31
-159.24
-140.80
-120.92
-102.06
-86.11
-74.17
-66.45
-62.17
-59.78
-57.49
-53.74
-47.69
-39.24
-28.91
-17.57
-6.13
4.53
13.74
20.91
25.70
28.04
28.12
26.42
23.58
20.33
17.29
14.83
13.01
11.51
9.74
7.03
2.91
-2.70
-9.23
-15.62
-20.48
-22.51
-20.96
-15.86
-8.08
0.89
9.32
15.78
19.47
20.33
18.97
16.24
12.95
9.63
6.48
3.53
0.81
-1.52
-3.19
-3.89
-3.52
-2.19
-0.27
1.78
3.56
4.86
5.66
6.08
6.31
6.43
6.40
6.09
5.33
4.07
2.37
0.49
-1.30
-2.77
-3.90
-4.89
-6.04
-7.72
-10.27
-13.94
-18.74
-24.39
-30.16
-34.87
-37.18
-35.97
-30.79
-22.10
-11.28
-0.14
9.53
16.45
20.12
20.81
19.23
16.25
12.60
8.68
4.57
0.18
-4.63
-9.78
-14.98
-19.64
-23.19
-25.11
-25.18
-23.45
-20.26
-16.06
-11.27
-6.22
-1.13
3.79
8.22
11.71
13.72
13.88
12.14
8.87
4.69
0.27
-3.84
-7.22
-9.41
-9.89
-8.20
-4.15
1.98
9.48
17.53
25.67
33.93
42.72
52.35
62.63
72.66
81.26
87.51
91.34
93.56
95.52
98.39
102.58
107.52
111.72
113.42
111.19
104.51
94.09
81.77
70.15
61.84
58.76
61.36
68.18
75.91
79.95
75.74
60.39
34.18
1.14
-31.88
-57.23
-69.24
-66.21
-51.10
-30.51
-12.33
-3.37
-7.47
-24.91
-52.77
-86.10
-119.13
-146.52
-164.32
-170.50
-165.13
-150.11
-128.59
-104.19
-80.26
-59.22
-42.25
-29.30
-19.45
-11.48
-4.37
2.58
9.72
17.24
25.26
33.71
42.22
50.02
55.97
58.75
57.12
50.14
37.61
20.37
0.48
-19.05
-34.99
-44.94
-48.05
-45.20
-38.56
-30.64
-23.45
-18.11
-14.87
-13.39
-13.12
-13.50
-14.29
-15.64
-17.90
-21.24
-25.04
-27.66
-26.91
-21.08
-10.10
3.94
17.45
26.80
29.90
27.17
21.24
15.82
14.18
17.99
26.80
38.24
48.70
54.34
52.16
40.90
21.34
-3.94
-31.34
-56.97
-77.29
-89.37
-91.12
-81.58
-61.48
-33.57
-2.34
26.95
49.88
64.13
70.11
70.39
68.43
67.17
68.03
70.76
73.87
75.54
74.44
70.05
62.70
53.20
42.75
32.65
24.39
19.28
18.06
20.33
24.41
27.49
26.45
18.79
3.44
-18.87
-45.94
-74.84
-102.78
-127.79
-148.82
-165.30
-176.48
-181.09
-177.58
-165.04
-144.37
-118.66
-92.56
-70.56
-55.21
-46.16
-40.75
-35.59
-28.48
-19.38
-10.05
-2.95
0.27
-0.31
-2.79
-4.08
-0.90
9.07
26.11
48.05
70.43
87.69
94.98
89.83
73.13
48.88
22.79
0.45
-14.31
-20.05
-17.53
-8.87
3.37
16.81
29.45
39.77
46.69
49.66
48.80
44.81
38.84
32.00
25.07
18.26
11.23
3.36
-5.99
-17.15
-30.06
-44.13
-58.29
-71.05
-80.82
-86.30
-86.99
-83.49
-77.34
-70.46
-64.39
-59.66
-55.64
-51.00
-44.49
-35.57
-24.79
-13.50
-3.24
4.92
10.75
14.86
18.32
22.09
26.72
32.14
37.88
43.28
47.82
51.23
53.65
55.53
57.48
60.10
63.69
68.19
73.15
77.96
82.10
85.25
87.42
88.78
89.54
89.79
89.44
88.06
84.77
78.23
66.84
49.13
24.59
-5.61
-38.20
-68.07
-89.34
-97.02
-88.73
-65.90
-33.65
0.65
29.65
48.23
54.84
51.26
41.26
28.81
16.77
6.60
-1.20
-6.46
-9.03
-9.13
-7.69
-6.53
-7.88
-13.59
-24.32
-39.21
-56.26
-72.85
-86.56
-95.67
-99.41
-97.95
-92.38
-84.51
-76.54
-70.46
-67.31
-66.65
-66.57
-64.34
-57.60
-45.26
-28.03
-7.95
12.46
31.20
47.30
60.61
71.37
79.64
85.13
87.56
86.98
84.01
79.74
75.40
72.00
70.16
70.13
71.94
75.44
80.35
86.10
91.83
96.47
99.11
99.40
97.88
95.84
94.80
95.66
97.88
99.24
96.23
85.04
62.99
29.61
-12.63
-58.60
-101.39
-134.00
-151.17
-150.91
-135.15
-109.20
-80.12
-54.62
-37.25
-29.54
-30.25
-36.46
-44.76
-52.21
-56.73
-57.17
-53.23
-45.55
-35.62
-25.61
-17.79
-13.86
-14.38
-18.60
-24.74
-30.79
-35.10
-36.94
-36.53
-34.76
-32.75
-31.38
-31.09
-31.76
-32.83
-33.49
-32.75
-29.72
-23.77
-14.84
-3.63
8.40
19.39
27.53
31.78
32.19
29.87
26.59
24.14
23.70
25.54
28.97
32.69
35.22
35.40
32.73
27.58
20.94
14.19
8.62
5.05
3.72
4.31
6.16
8.49
10.63
12.02
12.34
11.50
9.63
7.05
4.21
1.51
-0.83
-2.75
-4.29
-5.36
-5.68
-4.77
-2.22
2.09
7.78
14.07
20.01
24.81
28.16
30.28
31.68
32.88
34.06
34.94
34.98
33.64
30.78
26.80
22.54
18.95
16.65
15.71
15.54
15.28
14.18
12.00
9.03
5.93
3.32
1.45
0.09
-1.26
-3.10
-5.51
-8.12
-10.25
-11.32
-11.18
-10.25
-9.27
-8.93
-9.56
-11.01
-12.77
-14.30
-15.25
-15.58
-15.47
-15.13
-14.64
-13.95
-12.90
-11.37
-9.36
-7.10
-5.00
-3.50
-2.94
-3.37
-4.53
-5.97
-7.21
-7.98
-8.29
-8.34
-8.46
-8.89
-9.82
-11.30
-13.29
-15.61
-17.90
-19.75
-20.75
-20.65
-19.47
-17.56
-15.38
-13.36
-11.65
-10.06
-8.08
-5.12
-0.78
5.01
11.89
19.23
26.38
32.80
38.15
42.21
44.85
45.93
45.39
43.40
40.43
37.21
34.58
33.24
33.53
35.43
38.49
42.05
45.33
47.59
48.25
46.90
43.47
38.25
31.88
25.34
19.67
15.67
13.54
12.78
12.18
10.27
5.76
-1.94
-12.46
-24.47
-35.90
-44.46
-48.21
-46.15
-38.53
-26.92
-13.73
-1.49
7.86
13.44
15.41
14.68
12.35
9.39
6.50
4.10
2.33
0.92
-0.73
-3.55
-8.33
-15.37
-24.12
-33.27
-41.17
-46.44
-48.54
-47.82
-45.32
-42.21
-39.21
-36.37
-33.19
-28.99
-23.36
-16.38
-8.60
-0.81
6.08
11.05
12.94
10.57
3.18
-8.99
-24.31
-39.96
-52.64
-59.70
-59.91
-53.67
-42.55
-28.67
-14.01
-0.23
11.39
19.84
24.54
25.53
23.60
20.21
17.11
15.68
16.50
19.13
22.32
24.48
24.40
21.72
17.03
11.64
6.95
3.75
2.00
0.75
-1.42
-5.74
-12.64
-21.27
-29.40
-33.80
-31.21
-19.59
0.80
27.01
54.00
76.13
88.95
90.54
81.73
65.55
45.95
26.73
11.05
1.24
-1.03
5.02
18.93
38.70
60.89
81.36
96.63
105.09
107.55
106.89
106.57
108.95
113.90
118.51
117.97
107.20
82.78
44.25
-5.35
-60.14
-112.71
-156.07
-185.28
-198.59
-197.51
-185.81
-168.08
-148.30
-129.07
-111.73
-97.10
-86.06
-79.63
-78.40
-81.70
-87.28
-91.78
-91.82
-85.29
-71.96
-53.62
-33.31
-14.45
-0.01
8.01
8.90
3.33
-6.75
-18.65
-29.65
-37.75
-42.12
-43.09
-41.59
-38.54
-34.41
-29.22
-22.79
-15.03
-6.10
3.58
13.42
22.82
31.24
38.39
44.22
48.91
52.60
55.17
55.94
53.91
48.19
38.67
26.36
13.38
2.36
-4.34
-5.30
-0.29
9.87
23.74
39.67
56.03
71.23
83.83
92.67
97.27
97.94
95.74
91.87
87.02
81.04
73.06
62.23
48.49
32.84
17.16
3.41
-7.02
-13.78
-17.43
-19.28
-21.11
-24.83
-32.16
-44.02
-59.89
-77.61
-93.85
-105.23
-109.63
-106.95
-99.05
-88.74
-78.53
-69.77
-62.41
-55.61
-48.49
-40.76
-32.82
-25.40
-19.00
-13.53
-8.36
-2.70
3.92
11.34
18.92
25.93
32.07
37.70
43.88
51.97
63.07
77.58
94.84
113.06
129.56
141.39
146.01
142.03
129.58
110.26
86.64
61.62
37.82
17.05
0.11
-13.39
-24.60
-34.87
-45.03
-54.87
-63.28
-68.77
-70.34
-68.05
-62.99
-56.76
-50.80
-46.08
-43.22
-42.81
-45.52
-51.92
-61.98
-74.88
-89.03
-102.47
-113.30
-120.02
-121.89
-119.13
-113.05
-105.77
-99.40
-94.96
-91.81
-87.71
-79.95
-66.86
-48.83
-28.32
-8.72
7.17
18.25
25.14
29.31
31.95
33.21
32.46
29.09
23.55
17.74
14.57
16.83
25.83
40.67
58.42
75.23
87.84
94.74
96.59
95.70
95.11
97.54
104.59
116.18
130.27
142.84
148.29
140.75
116.00
73.63
18.42
-40.17
-90.38
-121.89
-129.24
-113.38
-80.95
-41.41
-3.70
26.21
46.18
57.13
61.58
62.33
61.68
61.21
61.70
62.92
63.47
60.91
52.40
35.79
10.74
-20.43
-52.78
-79.91
-95.97
-98.00
-87.51
-70.46
-55.32
-49.83
-57.75
-77.14
-101.18
-120.96
-129.18
-122.81
-103.70
-77.04
-48.83
-23.59
-3.51
11.15
20.92
26.31
27.50
24.84
19.38
12.97
7.74
5.33
6.09
9.09
12.55
14.77
14.97
13.66
12.49
13.70
19.36
30.61
47.20
67.20
87.12
102.56
109.36
104.91
89.31
65.66
39.46
17.04
3.63
1.77
10.75
27.17
46.29
63.70
76.55
83.95
86.57
85.88
83.32
79.92
76.11
71.92
67.14
61.28
53.70
43.61
30.42
14.05
-4.81
-24.82
-44.46
-62.55
-78.69
-93.28
-107.03
-120.33
-132.72
-142.79
-148.64
-148.70
-142.43
-130.71
-115.57
-99.47
-84.54
-71.97
-61.87
-53.50
-45.75
-37.62
-28.39
-17.88
-6.25
6.01
18.32
30.04
40.65
49.76
57.08
62.58
66.44
69.17
71.48
74.02
77.01
79.95
81.74
80.98
76.74
69.02
58.90
48.16
38.58
31.27
26.45
23.70
22.61
23.22
26.22
32.60
43.07
57.46
74.34
90.98
103.64
107.99
99.80
75.88
35.35
-19.11
-80.90
-140.20
-186.31
-210.58
-209.07
-183.68
-141.30
-91.44
-43.37
-3.87
23.64
38.73
42.78
37.93
26.33
10.09
-8.68
-27.79
-45.33
-60.12
-72.17
-82.72
-93.59
-105.98
-119.35
-130.83
-135.90
-129.99
-110.49
-78.12
-36.99
6.54
45.77
75.58
93.50
99.92
97.39
89.56
80.09
71.81
66.36
64.13
64.51
66.29
67.87
67.63
63.99
55.83
42.73
25.40
5.67
-13.83
-30.42
-42.25
-48.78
-50.86
-50.11
-48.02
-45.27
-41.55
-36.00
-27.91
-17.34
-5.18
7.06
17.82
25.84
30.26
30.67
27.09
20.11
11.07
2.09
-4.49
-6.66
-3.49
4.57
15.90
28.22
39.22
47.04
50.54
49.35
43.80
34.75
23.31
10.57
-2.61
-15.61
-27.95
-39.17
-48.89
-56.96
-63.55
-69.18
-74.42
-79.47
-83.84
-86.33
-85.50
-80.34
-70.93
-58.59
-45.58
-34.31
-26.48
-22.56
-21.72
-22.28
-22.37
-20.57
-16.24
-9.51
-0.97
8.54
18.13
26.92
34.05
38.69
40.20
38.44
33.88
27.62
21.12
15.66
11.93
9.76
8.33
6.68
4.23
1.12
-1.82
-3.47
-2.93
0.24
5.92
13.41
21.45
28.13
31.05
27.85
17.20
-0.34
-21.91
-42.82
-58.10
-64.00
-59.22
-45.05
-24.57
-1.47
20.97
40.34
55.13
64.48
68.05
65.99
59.03
48.38
35.72
22.76
11.06
1.72
-4.80
-8.64
-10.34
-10.65
-10.21
-9.46
-8.71
-8.10
-7.73
-7.60
-7.52
-7.17
-6.24
-4.54
-2.29
0.01
1.63
1.93
0.55
-2.49
-6.79
-11.65
-16.12
-19.18
-19.92
-17.74
-12.54
-4.81
4.52
14.19
22.94
29.82
34.33
36.58
37.19
37.04
36.99
37.60
39.02
41.00
43.05
44.68
45.66
46.05
46.21
46.63
47.75
49.75
52.41
55.28
57.75
59.33
59.77
59.14
57.74
56.03
54.59
53.94
54.29
55.23
55.55
53.36
46.73
34.49
16.83
-4.48
-26.65
-46.79
-62.78
-73.64
-79.39
-80.59
-77.93
-72.05
-63.65
-53.62
-43.06
-33.07
-24.42
-17.32
-11.44
-6.09
-0.68
4.95
10.24
14.10
15.32
13.19
7.99
1.04
-5.71
-10.39
-12.07
-11.09
-8.96
-7.80
-9.72
-16.30
-28.42
-46.29
-69.49
-96.91
-126.44
-154.85
-178.13
-192.29
-194.47
-183.82
-161.69
-130.76
-93.74
-52.24
-7.00
41.07
89.36
132.97
165.69
182.33
181.11
164.62
138.76
110.17
83.62
60.86
41.25
23.54
7.48
-5.73
-14.24
-16.88
-13.96
-7.15
1.51
10.54
19.48
28.70
38.56
48.75
57.95
64.23
65.75
61.52
51.88
38.47
23.79
10.53
0.90
-3.76
-3.04
2.66
12.31
24.39
36.99
48.11
55.91
59.21
57.78
52.45
44.88
37.01
30.34
25.32
21.02
15.30
5.44
-10.91
-34.59
-64.20
-95.91
-124.00
-142.29
-145.86
-132.73
-104.83
-67.72
-29.15
3.29
24.35
32.45
29.60
20.10
8.72
-0.81
-6.34
-7.05
-2.78
6.38
20.03
36.90
54.43
68.84
75.83
71.75
54.76
25.46
-12.99
-55.67
-97.05
-132.30
-158.31
-174.12
-180.56
-179.55
-173.24
-163.39
-151.31
-138.01
-124.54
-112.03
-101.43
-93.17
-86.69
-80.40
-71.99
-59.19
-40.75
-17.20
8.93
33.82
53.71
66.38
71.93
72.60
71.55
71.41
73.20
76.29
79.24
80.81
80.75
79.70
78.57
77.78
76.89
74.92
70.87
64.49
56.54
48.58
42.31
38.90
38.52
40.34
42.95
44.91
45.19
43.36
39.62
34.61
29.33
24.87
22.25
22.00
23.96
27.22
30.36
32.07
31.67
29.43
26.40
23.83
22.60
22.86
24.11
25.67
27.20
28.78
30.83
33.56
36.70
39.46
40.86
40.09
36.80
31.02
22.88
12.41
-0.39
-15.09
-30.31
-43.54
-51.50
-50.95
-39.62
-16.89
16.10
56.83
102.12
148.78
193.91
234.94
269.65
296.21
313.55
321.57
321.38
315.02
304.91
293.21
281.30
269.81
258.73
247.86
236.95
225.78
213.89
200.51
184.70
165.62
142.97
117.00
88.49
58.39
27.42
-4.14
-36.48
-70.34
-106.85
-147.14
-191.52
-238.69
-285.16
-325.65
-354.41
-367.06
-361.99
-340.75
-307.32
-266.55
-223.02
-180.46
-141.73
-108.73
-82.11
-60.68
-41.34
-20.01
6.48
38.69
73.68
106.00
129.77
140.84
137.84
122.03
96.25
63.82
29.21
-1.69
-22.51
-28.66
-19.61
0.51
24.68
46.29
61.71
71.89
80.88
92.32
106.38
119.26
125.58
121.77
108.04
86.79
62.00
37.22
14.03
-8.70
-34.29
-66.45
-107.69
-158.06
-218.38
-285.08
-349.29
-398.88
-423.36
-417.75
-383.35
-326.47
-256.49
-191.51
-146.23
-126.93
-130.99
-151.93
-183.41
-219.81
-256.12
-288.58
-327.79
-382.32
-451.80
-526.54
-595.54
-652.79
-697.36
-731.28
-757.62
-795.19
-856.26
-938.62
-1027.24
-1106.26
-1167.99
-1211.87
-1240.57
-1156.17
-912.20
-540.00
-132.49
225.52
497.31
684.26
804.92
880.58
928.68
945.04
925.39
874.82
808.55
742.18
684.00
635.56
595.49
562.04
522.12
468.36
404.80
344.94
305.57
289.33
289.94
298.33
307.69
307.80
294.67
271.52
245.15
219.41
192.28
161.76
129.38
101.29
81.82
73.87
76.91
86.11
92.81
87.75
67.48
36.32
3.85
-21.64
-36.00
-40.28
-39.05
-35.82
-34.56
-36.76
-41.33
-45.61
-47.05
-44.42
-38.02
-29.25
-20.07
-12.66
-8.33
-7.32
-8.97
-11.84
-13.91
-12.93
-6.69
6.41
26.52
52.26
80.23
105.09
120.38
120.39
102.41
68.47
25.62
-15.94
-45.92
-57.31
-48.53
-23.52
10.10
43.47
68.62
79.60
72.96
48.14
7.77
-42.38
-94.33
-139.82
-172.71
-190.82
-196.07
-193.06
-186.46
-178.92
-170.23
-158.16
-140.03
-114.32
-81.35
-42.97
-1.91
39.06
77.47
111.23
138.54
158.03
168.89
171.27
166.50
156.96
145.60
135.10
127.03
121.31
116.40
110.19
101.20
89.65
77.53
67.95
63.69
65.78
72.66
80.48
84.14
78.75
61.02
30.10
-11.93
-60.15
-107.31
-144.95
-165.04
-161.70
-132.88
-81.36
-14.56
56.92
121.67
170.20
197.05
201.65
187.93
162.62
133.24
106.34
86.39
75.33
72.62
75.52
79.61
79.59
70.54
49.26
15.35
-28.75
-78.69
-129.68
-177.63
-219.54
-253.04
-275.96
-286.52
-284.38
-272.12
-255.66
-242.99
-241.28
-253.61
-277.13
-303.85
-323.80
-329.01
-316.47
-288.43
-250.37
-208.02
-164.97
-122.12
-78.66
-33.93
11.32
54.74
93.46
125.39
150.13
168.90
183.56
195.55
205.02
210.89
211.44
205.43
192.86
175.37
156.00
138.27
125.16
117.97
115.80
115.66
113.39
105.14
88.71
64.45
35.16
5.20
-20.82
-39.32
-48.46
-48.38
-40.88
-28.92
-15.87
-4.65
2.99
6.81
8.06
8.88
11.65
18.30
29.77
45.84
64.97
84.63
101.77
113.61
118.40
115.86
107.08
93.94
78.21
61.17
43.50
25.69
8.41
-7.43
-21.07
-32.36
-41.94
-51.01
-60.75
-71.79
-83.89
-96.03
-106.75
-114.46
-117.71
-115.32
-106.58
-91.35
-70.30
-44.78
-16.87
11.11
36.82
58.42
74.80
85.70
91.76
94.14
94.27
93.39
92.37
91.54
90.81
89.89
88.38
85.99
82.57
78.24
73.27
68.10
63.05
58.20
53.19
47.26
39.52
29.26
16.28
1.19
-14.65
-29.33
-40.83
-47.49
-48.45
-43.88
-34.90
-23.36
-11.26
-0.32
8.39
14.46
18.08
19.69
19.82
18.94
17.48
15.88
14.58
13.92
14.04
14.77
15.67
16.18
15.84
14.45
12.15
9.32
6.37
3.60
1.07
-1.32
-3.73
-6.33
-9.25
-12.67
-16.78
-21.62
-26.94
-32.00
-35.69
-36.76
-34.31
-28.00
-18.20
-5.83
7.93
21.79
34.54
44.97
51.98
54.65
52.47
45.64
35.14
22.66
10.24
-0.22
-7.40
-10.82
-10.83
-8.32
-4.43
-0.25
3.36
5.77
6.60
5.71
3.28
-0.26
-4.35
-8.63
-13.04
-17.96
-24.01
-31.72
-41.16
-51.62
-61.53
-68.66
-70.63
-65.46
-52.46
-32.69
-9.19
13.54
30.64
38.44
35.68
24.05
7.62
-8.46
-19.52
-22.60
-16.85
-3.26
15.95
38.03
60.00
78.98
92.38
98.34
96.15
86.61
71.98
55.35
39.77
27.32
18.50
12.25
6.56
-0.62
-10.60
-23.49
-38.40
-53.81
-68.17
-80.26
-89.21
-94.56
-96.04
-93.69
-87.91
-79.58
-70.02
-60.78
-53.38
-48.86
-47.58
-48.96
-51.64
-53.75
-53.44
-49.40
-41.31
-30.05
-17.42
-5.79
2.62
6.28
4.93
-0.31
-7.08
-12.45
-13.74
-9.33
0.74
14.86
30.28
44.07
53.93
58.70
58.55
54.61
48.60
42.29
37.23
34.38
33.99
35.60
38.17
40.57
42.01
42.46
42.65
43.72
46.55
50.99
55.61
57.93
55.38
46.33
30.96
11.40
-8.96
-26.61
-39.14
-45.83
-47.61
-46.34
-43.89
-41.48
-39.36
-37.11
-34.04
-29.68
-23.91
-16.94
-9.11
-0.75
7.66
15.43
21.46
24.53
23.86
19.73
13.72
8.42
6.44
9.20
16.19
24.92
31.81
33.44
27.86
15.13
-2.83
-22.98
-42.22
-58.08
-69.24
-75.38
-77.05
-75.26
-71.23
-66.20
-61.27
-57.22
-54.26
-51.95
-49.24
-44.92
-38.15
-28.96
-18.57
-9.04
-2.78
-1.62
-6.17
-15.43
-26.89
-37.26
-43.32
-42.99
-35.84
-23.16
-7.49
8.33
21.95
32.16
38.93
43.18
46.21
49.28
53.29
58.48
64.37
69.84
73.37
73.62
70.07
63.43
55.67
49.38
46.70
48.34
53.08
58.12
60.11
56.49
46.42
30.97
12.54
-6.14
-22.85
-36.42
-46.65
-53.95
-58.94
-62.19
-64.15
-65.21
-65.71
-65.85
-65.62
-64.58
-61.85
-56.25
-46.71
-32.82
-15.23
4.11
22.42
36.80
45.18
47.07
43.62
37.17
30.23
24.63
20.98
18.74
16.79
14.03
9.94
4.65
-1.26
-7.11
-12.33
-16.63
-19.86
-21.90
-22.75
-22.52
-21.63
-20.72
-20.52
-21.58
-23.96
-27.23
-30.64
-33.55
-35.73
-37.49
-39.47
-42.21
-45.71
-49.20
-51.27
-50.34
-45.26
-35.81
-22.89
-8.43
5.18
15.76
21.97
23.69
22.06
19.10
17.02
17.59
21.64
28.86
37.99
47.21
54.65
58.95
59.58
56.95
52.18
46.62
41.40
36.98
33.24
29.73
26.20
22.86
20.36
19.42
20.36
22.78
25.59
27.38
26.92
23.55
17.37
9.06
-0.32
-9.63
-17.88
-24.30
-28.42
-30.13
-29.65
-27.36
-23.71
-18.91
-12.88
-5.38
3.63
13.61
23.16
30.27
32.90
29.78
21.03
8.28
-5.71
-17.92
-25.90
-28.46
-25.82
-19.35
-11.04
-2.84
3.75
7.94
9.60
9.01
6.73
3.36
-0.41
-3.87
-6.37
-7.41
-6.90
-5.13
-2.84
-0.93
-0.24
-1.26
-3.89
-7.42
-10.61
-12.11
-10.82
-6.43
0.54
8.81
16.86
23.48
28.02
30.54
31.44
31.18
30.09
28.34
26.19
24.05
22.46
21.91
22.59
24.32
26.50
28.41
29.40
29.13
27.58
25.07
22.03
18.85
15.83
13.11
10.71
8.58
6.61
4.70
2.77
0.80
-1.21
-3.25
-5.45
-7.97
-11.07
-14.89
-19.42
-24.31
-28.93
-32.46
-34.07
-33.16
-29.57
-23.66
-16.32
-8.74
-2.08
2.86
5.82
7.01
6.93
6.03
4.56
2.62
0.27
-2.20
-4.40
-5.88
-6.38
-5.95
-4.92
-3.68
-2.54
-1.59
-0.79
-0.03
0.70
1.35
1.83
2.09
2.18
2.17
2.10
1.87
1.24
-0.08
-2.29
-5.40
-9.18
-13.19
-16.93
-19.80
-21.26
-20.81
-18.11
-13.18
-6.49
0.98
7.95
13.26
16.24
16.93
16.04
14.57
13.40
12.98
13.26
13.80
13.99
13.36
11.69
9.15
6.20
3.39
1.20
-0.16
-0.70
-0.71
-0.56
-0.69
-1.46
-3.14
-5.80
-9.15
-12.63
-15.34
-16.46
-15.61
-13.14
-10.15
-8.12
-8.33
-11.35
-16.81
-23.49
-29.74
-34.07
-35.50
-33.75
-29.20
-22.52
-14.44
-5.53
3.84
13.40
22.80
31.70
39.73
46.66
52.34
56.65
59.33
60.04
58.46
54.71
49.48
43.87
39.00
35.34
32.58
29.62
25.25
18.70
9.94
-0.43
-11.64
-23.06
-34.35
-45.28
-55.42
-64.09
-70.47
-74.01
-74.85
-73.84
-72.33
-71.64
-72.56
-75.04
-78.16
-80.43
-80.22
-76.31
-68.27
-56.72
-43.28
-30.13
-19.53
-12.96
-10.72
-11.78
-14.13
-15.51
-14.12
-9.12
-0.67
10.33
22.67
35.13
46.56
55.95
62.35
65.14
64.20
60.22
54.62
49.27
45.83
45.15
46.86
49.51
51.11
49.92
45.03
36.72
26.37
15.91
7.51
2.97
3.43
9.02
18.50
29.25
37.54
39.38
31.78
14.02
-11.79
-40.98
-67.65
-86.45
-94.15
-90.43
-77.55
-59.30
-39.59
-21.36
-6.10
6.02
15.62
23.62
30.72
37.25
43.11
47.87
50.91
51.60
49.65
45.27
39.34
33.21
28.29
25.59
25.26
26.42
27.37
26.26
21.75
13.73
3.55
-6.43
-13.68
-16.67
-15.59
-12.60
-10.98
-13.88
-23.01
-37.83
-55.79
-73.12
-86.24
-92.73
-91.90
-84.61
-72.82
-58.93
-45.25
-33.61
-25.09
-19.88
-17.37
-16.34
-15.40
-13.53
-10.34
-6.17
-1.90
1.54
3.50
3.92
3.25
2.40
2.48
4.52
9.25
16.83
26.70
37.59
47.73
55.34
59.12
58.64
54.42
47.71
40.06
32.79
26.79
22.46
19.89
19.08
20.06
22.84
27.17
32.39
37.35
40.67
41.06
37.87
31.27
22.27
12.47
3.56
-3.06
-6.66
-7.29
-5.77
-3.46
-1.95
-2.58
-5.99
-11.75
-18.28
-23.11
-23.56
-17.63
-4.99
12.39
30.20
42.55
43.63
29.74
1.09
-37.65
-78.21
-111.21
-129.14
-128.62
-111.13
-81.95
-47.81
-14.71
13.54
35.40
50.88
60.67
65.58
66.53
64.81
62.15
60.29
60.42
62.57
65.41
66.67
63.99
55.98
42.89
26.57
9.80
-4.94
-16.34
-24.65
-31.22
-37.53
-44.49
-52.03
-59.40
-65.65
-70.05
-72.12
-71.64
-68.64
-63.50
-57.26
-51.45
-47.73
-47.18
-49.83
-54.49
-59.21
-61.94
-61.17
-56.25
-47.31
-35.10
-20.67
-5.28
9.89
23.80
35.64
44.99
51.69
55.90
58.01
58.62
58.41
58.03
57.94
58.32
59.05
59.84
60.42
60.63
60.48
60.18
60.06
60.50
61.83
64.07
66.73
68.61
67.84
62.27
50.04
30.34
4.05
-26.10
-55.83
-80.20
-94.86
-97.20
-87.10
-66.98
-41.13
-14.69
7.61
22.33
27.90
24.67
14.68
1.05
-12.74
-23.61
-29.54
-29.97
-25.73
-18.78
-11.60
-6.60
-5.58
-9.36
-17.55
-28.56
-39.98
-49.22
-54.36
-54.76
-51.23
-45.66
-40.32
-36.96
-36.28
-37.76
-39.91
-40.86
-38.99
-33.54
-25.07
-15.43
-7.23
-3.01
-4.26
-10.77
-20.64
-30.86
-38.31
-40.62
-36.76
-27.06
-13.01
3.20
19.21
32.95
43.05
49.09
51.57
51.69
50.86
50.22
50.42
51.46
52.86
53.86
53.66
51.71
47.88
42.64
37.01
32.29
29.52
28.98
29.88
30.61
29.28
24.64
16.67
6.67
-3.16
-10.53
-13.93
-13.03
-8.72
-2.64
3.27
7.34
8.53
6.62
2.30
-2.92
-7.07
-8.23
-5.08
2.59
13.76
26.41
38.02
46.27
49.57
47.42
40.37
29.93
18.10
6.95
-1.92
-7.83
-11.18
-13.41
-16.43
-22.02
-31.10
-43.42
-57.61
-71.57
-83.24
-91.10
-94.56
-93.92
-90.14
-84.50
-78.15
-71.94
-66.17
-60.63
-54.74
-47.75
-39.13
-28.81
-17.37
-5.95
3.98
11.19
15.07
16.05
15.36
14.67
15.39
18.13
22.45
27.07
30.36
30.96
28.30
22.74
15.46
8.09
2.27
-0.80
-0.64
2.48
7.57
13.33
18.39
21.71
22.74
21.46
18.34
14.15
9.75
5.81
2.71
0.47
-1.12
-2.20
-2.66
-2.05
0.14
4.21
9.93
16.52
22.70
27.10
28.62
26.65
21.33
13.55
4.89
-2.70
-7.31
-7.72
-3.85
3.15
11.10
17.57
20.68
19.72
15.35
9.18
3.10
-1.42
-3.77
-4.17
-3.40
-2.23
-1.19
-0.35
0.44
1.37
2.48
3.63
4.58
5.15
5.24
4.78
3.72
2.02
-0.27
-2.82
-5.12
-6.53
-6.59
-5.26
-2.91
-0.15
2.35
4.18
5.18
5.42
5.06
4.27
3.27
2.31
1.65
1.49
1.89
2.75
3.80
4.80
5.51
5.82
5.71
5.22
4.38
3.20
1.70
-0.10
-2.14
-4.33
-6.51
-8.52
-10.28
-11.77
-13.14
-14.59
-16.34
-18.49
-20.95
-23.34
-25.12
-25.70
-24.65
-21.91
-17.79
-12.88
-7.85
-3.30
0.42
3.10
4.68
5.13
4.47
2.89
0.69
-1.64
-3.61
-4.87
-5.32
-5.09
-4.42
-3.60
-2.77
-2.05
-1.55
-1.39
-1.68
-2.51
-3.74
-5.09
-6.22
-6.86
-7.02
-6.94
-7.06
-7.74
-9.13
-11.10
-13.28
-15.14
-16.16
-15.86
-13.90
-10.06
-4.40
2.69
10.43
17.74
23.53
26.99
27.92
26.73
24.32
21.72
19.75
18.86
19.09
20.29
22.24
24.75
27.57
30.22
31.97
31.96
29.54
24.61
17.84
10.48
4.03
-0.35
-2.23
-2.00
-0.66
0.60
0.77
-0.67
-3.82
-8.34
-13.67
-19.03
-23.51
-26.19
-26.30
-23.53
-18.19
-11.20
-3.94
2.17
6.01
7.12
5.74
2.75
-0.68
-3.44
-4.80
-4.56
-3.03
-0.85
1.27
2.76
3.32
2.99
2.06
0.96
0.13
-0.08
0.47
1.68
3.24
4.76
5.85
6.26
5.92
4.90
3.41
1.70
0.01
-1.48
-2.73
-3.85
-5.07
-6.67
-8.75
-11.14
-13.33
-14.64
-14.43
-12.39
-8.66
-3.83
1.31
6.03
9.84
12.63
14.51
15.75
16.53
16.88
16.69
15.82
14.24
12.13
9.85
7.87
6.59
6.18
6.52
7.32
8.26
9.14
9.95
10.77
11.69
12.66
13.56
14.28
14.86
15.44
16.25
17.33
18.49
19.29
19.21
17.93
15.41
11.98
8.14
4.46
1.40
-0.76
-1.85
-1.85
-0.81
1.10
3.66
6.60
9.65
12.61
15.28
17.45
18.85
19.17
18.11
15.54
11.50
6.23
0.16
-6.13
-12.03
-16.99
-20.73
-23.40
-25.59
-28.09
-31.65
-36.64
-42.95
-50.11
-57.58
-64.90
-71.83
-78.17
-83.68
-88.02
-90.83
-91.88
-91.16
-88.73
-84.54
-78.33
-69.64
-58.20
-44.15
-28.31
-12.04
3.07
15.60
24.67
30.00
31.84
30.75
27.46
22.87
18.00
13.93
11.65
11.80
14.50
19.37
25.81
33.19
41.11
49.37
57.84
66.27
74.21
81.26
87.28
92.81
99.05
107.65
120.10
137.04
157.91
181.00
204.01
224.96
242.76
257.28
268.95
278.16
284.86
288.70
289.36
286.91
281.91
275.05
266.84
257.38
246.56
234.38
221.23
207.80
194.89
182.99
172.21
162.25
152.75
143.43
134.20
125.12
116.24
107.57
99.10
90.88
83.08
76.09
70.41
66.47
64.47
64.09
64.49
64.49
62.84
58.69
51.73
42.31
31.05
18.49
4.64
-11.14
-29.92
-52.73
-79.94
-110.96
-144.27
-177.95
-210.31
-240.57
-269.06
-297.22
-327.07
-360.66
-399.29
-442.62
-488.07
-530.77
-564.43
-583.16
-583.46
-565.74
-534.22
-495.33
-455.21
-417.45
-382.37
-347.81
-311.17
-271.23
-229.02
-187.47
-150.22
-120.39
-99.69
-87.87
-82.74
-80.55
-77.00
-68.48
-53.42
-32.80
-9.67
12.30
30.46
44.17
54.66
64.02
74.00
85.36
97.86
110.74
123.16
134.29
143.26
149.26
151.72
150.67
146.87
141.69
136.68
133.17
131.97
133.20
136.29
140.08
143.03
143.58
140.63
133.94
124.24
112.90
101.40
90.72
80.93
71.22
60.31
47.04
31.00
12.69
-6.66
-25.81
-44.23
-62.38
-81.55
-103.04
-127.21
-152.97
-177.95
-199.22
-214.32
-221.87
-221.77
-214.93
-202.71
-186.72
-168.55
-149.81
-132.08
-116.62
-104.22
-94.95
-88.27
-83.15
-78.54
-73.62
-68.01
-61.81
-55.48
-49.61
-44.74
-41.22
-39.10
-38.14
-37.84
-37.51
-36.38
-33.76
-29.23
-22.73
-14.61
-5.59
3.44
11.68
18.54
23.79
27.41
29.59
30.50
30.30
29.16
27.30
25.06
22.89
21.22
20.32
20.25
20.77
21.47
21.92
21.77
20.88
19.31
17.35
15.33
13.48
11.89
10.42
8.82
6.81
4.21
0.91
-3.08
-7.64
-12.42
-16.79
-19.88
-20.78
-18.84
-14.03
-7.00
1.05
8.78
15.14
19.63
22.31
23.55
23.74
23.16
21.89
20.01
17.69
15.27
13.20
11.91
11.62
12.29
13.61
15.12
16.35
17.05
17.15
16.80
16.20
15.51
14.72
13.66
12.10
9.88
6.93
3.36
-0.63
-4.80
-8.83
-12.33
-14.75
-15.45
-13.85
-9.66
-3.01
5.48
14.76
23.72
31.36
37.07
40.63
42.23
42.16
40.82
38.55
35.68
32.57
29.59
27.18
25.59
24.87
24.71
24.63
24.15
23.07
21.54
19.92
18.52
17.36
16.09
14.27
11.63
8.37
5.02
2.21
0.25
-0.97
-1.88
-2.88
-4.06
-5.03
-5.15
-3.76
-0.52
4.43
10.50
16.83
22.58
27.09
30.05
31.49
31.77
31.40
30.85
30.53
30.71
31.53
33.06
35.22
37.74
40.13
41.83
42.28
41.11
38.24
33.89
28.44
22.34
15.88
9.20
2.29
-4.82
-11.94
-18.64
-24.36
-28.56
-31.04
-31.90
-31.53
-30.25
-28.07
-24.62
-19.25
-11.45
-1.13
11.16
24.31
36.96
47.80
55.88
60.69
62.29
61.16
58.08
54.01
49.81
46.02
42.64
39.15
34.72
28.62
20.67
11.32
1.57
-7.54
-15.37
-21.84
-27.31
-32.18
-36.49
-39.87
-41.71
-41.60
-39.67
-36.56
-33.26
-30.63
-29.16
-28.91
-29.65
-31.02
-32.64
-34.10
-34.90
-34.40
-31.98
-27.15
-19.74
-10.10
1.03
12.56
23.32
32.32
38.93
42.96
44.71
44.74
43.75
42.33
40.86
39.54
38.43
37.61
37.21
37.39
38.34
40.21
42.97
46.45
50.22
53.68
56.23
57.38
57.07
55.67
53.84
52.35
51.72
52.09
53.22
54.65
55.84
56.40
56.02
54.68
52.77
51.16
51.12
53.91
60.09
68.86
77.96
84.20
84.50
77.01
61.65
39.85
13.74
-14.61
-43.68
-72.31
-99.34
-123.20
-142.09
-154.48
-159.64
-158.04
-151.12
-140.86
-129.11
-117.14
-105.53
-94.34
-83.41
-72.68
-62.28
-52.51
-43.66
-35.80
-28.78
-22.33
-16.27
-10.73
-6.06
-2.66
-0.60
0.59
1.88
4.47
9.24
16.42
25.46
35.29
44.66
52.55
58.36
61.85
63.08
62.22
59.56
55.56
50.87
46.29
42.55
40.24
39.54
40.24
41.87
43.82
45.53
46.67
47.07
46.73
45.72
44.06
41.76
38.85
35.34
31.19
26.28
20.36
13.13
4.38
-5.79
-16.96
-28.42
-39.41
-49.30
-57.70
-64.45
-69.44
-72.53
-73.52
-72.25
-68.71
-63.15
-56.10
-48.27
-40.36
-32.95
-26.39
-20.73
-15.87
-11.63
-7.88
-4.60
-1.81
0.48
2.45
4.37
6.52
8.97
11.51
13.72
15.19
15.74
15.51
14.92
14.44
14.40
14.84
15.52
16.06
15.96
14.85
12.48
8.79
3.91
-1.85
-8.11
-14.28
-19.67
-23.53
-25.14
-24.15
-20.74
-15.71
-10.38
-6.16
-4.14
-4.75
-7.68
-12.06
-16.82
-20.99
-23.95
-25.45
-25.56
-24.55
-22.81
-20.79
-18.96
-17.73
-17.36
-17.87
-19.06
-20.53
-21.79
-22.36
-21.95
-20.45
-18.08
-15.24
-12.52
-10.52
-9.63
-9.97
-11.41
-13.64
-16.34
-19.16
-21.60
-22.98
-22.33
-18.76
-11.75
-1.48
11.04
24.34
36.90
47.65
56.17
62.55
67.15
70.23
71.88
72.08
70.87
68.46
65.15
61.19
56.66
51.48
45.54
38.99
32.28
26.15
21.36
18.39
17.24
17.45
18.22
18.74
18.47
17.23
15.25
13.00
10.89
9.19
7.92
7.07
6.82
7.62
10.11
14.70
21.37
29.61
38.59
47.41
55.39
62.16
67.43
70.91
72.12
70.62
66.30
59.60
51.35
42.59
34.26
27.02
21.29
17.20
14.83
14.35
15.83
18.93
22.92
26.97
30.41
33.00
34.43
34.67
34.12
33.48
33.21
33.63
34.98
37.21
39.99
41.57
39.81
33.13
21.03
3.84
-16.75
-37.56
-54.41
-62.68
-60.30
-47.53
-26.74
-2.23
20.04
34.58
38.34
31.74
18.71
2.92
-12.68
-26.21
-31.43
-23.70
-3.47
23.22
43.73
57.20
64.60
65.65
61.35
50.38
30.12
-1.93
-46.84
-103.16
-165.94
-229.06
-284.82
-324.97
-343.54
-339.25
-315.82
-280.26
-240.18
-200.82
-165.68
-135.81
-110.46
-88.71
-70.32
-55.36
-43.43
-33.22
-22.58
-10.50
2.85
16.56
29.15
39.31
46.59
51.63
55.90
61.19
68.31
76.68
84.85
91.18
94.51
94.61
92.18
88.60
85.35
83.15
81.15
77.91
72.27
63.96
53.85
43.70
35.72
31.88
33.00
37.16
40.97
40.90
34.58
21.49
3.13
-17.70
-37.64
-53.93
-66.31
-75.28
-81.02
-83.10
-81.18
-75.77
-68.72
-62.30
-49.92
-28.08
2.48
36.91
70.33
100.20
125.83
146.67
162.46
173.34
178.56
178.31
173.70
166.91
160.19
155.04
151.19
147.72
143.53
136.84
126.80
113.21
96.68
77.27
58.02
39.21
20.04
-0.75
-25.01
-53.93
-88.34
-126.45
-163.70
-193.90
-212.13
-215.66
-204.87
-183.40
-156.37
-130.78
-110.65
-95.97
-84.55
-75.39
-69.08
-67.07
-70.19
-77.25
-88.44
-100.92
-109.45
-109.64
-101.62
-89.91
-81.32
-82.21
-96.70
-130.34
-182.49
-245.27
-306.67
-355.99
-386.68
-397.28
-390.80
-344.48
-257.97
-153.20
-58.44
11.43
56.71
83.95
99.21
106.55
108.71
103.56
92.00
78.56
68.71
64.82
66.68
71.90
77.99
83.39
84.04
79.29
71.95
66.15
64.59
67.85
75.33
86.62
102.07
116.35
126.54
131.65
132.02
128.44
122.12
114.80
108.47
104.37
101.14
97.26
91.41
83.20
72.87
61.14
48.81
36.55
24.77
13.26
2.51
-6.66
-13.34
-17.09
-18.08
-17.22
-15.73
-14.81
-15.38
-17.58
-21.10
-25.22
-29.10
-32.04
-33.83
-34.76
-35.59
-37.31
-40.57
-45.55
-51.75
-57.92
-62.38
-63.48
-60.11
-52.12
-40.48
-26.82
-13.15
-1.09
8.44
15.29
19.87
22.73
24.30
24.78
24.28
23.04
21.51
20.24
19.74
20.20
21.46
23.12
24.73
26.00
26.87
27.46
27.89
28.14
28.09
27.58
26.55
25.09
23.41
21.74
20.09
18.10
14.93
9.47
0.72
-11.64
-26.78
-42.60
-56.24
-64.88
-66.72
-61.55
-50.73
-36.58
-21.52
-7.40
4.80
14.72
22.32
27.57
30.55
31.58
31.31
30.71
30.66
31.66
33.63
36.05
38.22
39.65
40.17
39.89
38.98
37.53
35.52
32.94
29.85
26.45
22.92
19.28
15.46
11.27
6.58
1.38
-4.33
-10.54
-17.36
-24.76
-32.40
-39.41
-44.57
-46.60
-44.66
-38.69
-29.48
-18.40
-6.98
3.48
12.05
18.23
21.83
22.86
21.43
17.87
12.58
6.25
-0.26
-5.80
-9.20
-9.48
-6.28
-0.02
8.14
16.64
23.99
29.18
31.80
32.08
30.69
28.45
26.11
24.14
22.62
21.33
19.91
18.04
15.54
12.35
8.46
3.89
-1.14
-5.96
-9.51
-10.55
-8.24
-2.50
5.69
14.64
22.53
28.06
30.99
32.18
33.20
35.57
40.02
45.82
50.96
52.74
48.90
38.71
23.50
6.44
-8.51
-17.82
-19.51
-13.53
-1.59
13.56
28.86
41.69
50.34
54.20
53.76
50.43
46.02
42.16
39.64
38.18
36.50
33.02
26.70
17.65
7.34
-2.03
-8.29
-9.91
-6.29
2.25
14.74
29.61
44.75
57.75
66.36
69.39
67.24
61.82
55.75
51.22
49.22
49.56
51.50
54.24
57.18
59.50
59.96
57.00
49.29
36.57
20.03
2.24
-13.66
-25.00
-30.48
-30.37
-26.11
-19.50
-12.01
-4.35
3.55
12.17
21.93
32.59
42.90
50.54
52.59
46.66
31.88
9.76
-15.78
-39.24
-55.21
-60.22
-53.79
-38.43
-18.26
2.51
20.57
33.78
40.83
41.12
34.81
23.28
9.25
-3.77
-12.49
-15.01
-11.50
-4.08
4.12
10.28
13.12
13.40
13.63
16.92
25.58
40.05
58.36
76.71
90.76
97.19
94.82
84.96
70.78
55.92
43.18
33.65
26.70
20.92
15.22
9.82
6.39
7.60
16.08
33.48
59.87
93.52
131.17
168.55
201.16
225.19
238.47
241.02
234.94
223.58
210.33
197.52
185.96
175.19
164.21
152.12
138.52
123.27
106.20
86.80
64.25
37.76
7.01
-27.49
-64.27
-101.31
-136.52
-168.38
-196.27
-220.47
-241.89
-261.75
-281.50
-302.77
-327.01
-354.54
-383.42
-408.92
-424.19
-422.54
-400.23
-358.38
-302.95
-242.61
-185.61
-137.47
-100.36
-74.18
-58.13
-51.58
-53.82
-63.02
-75.64
-87.02
-92.72
-90.26
-79.78
-63.82
-46.21
-30.59
-19.48
-13.85
-13.27
-16.28
-20.92
-25.30
-27.97
-28.18
-25.86
-21.50
-15.78
-9.45
-3.17
2.45
6.81
9.32
9.54
7.27
2.73
-3.49
-10.39
-16.77
-21.44
-23.43
-22.28
-18.18
-11.89
-4.53
2.75
9.07
13.92
17.07
18.50
18.24
16.48
13.70
10.68
8.36
7.69
9.21
12.90
18.19
24.06
29.39
33.25
35.11
34.82
32.67
29.12
24.66
19.69
14.45
9.12
3.82
-1.26
-5.96
-10.10
-13.57
-16.35
-18.46
-20.10
-21.58
-23.27
-25.52
-28.42
-31.63
-34.44
-35.92
-35.19
-31.75
-25.70
-17.66
-8.62
0.32
8.23
14.49
18.88
21.48
22.52
22.27
21.00
18.93
16.38
13.76
11.56
10.24
10.01
10.81
12.37
14.28
16.20
17.92
19.31
20.24
20.53
19.96
18.37
15.79
12.47
8.87
5.55
2.96
1.29
0.42
-0.09
-0.86
-2.45
-5.05
-8.36
-11.56
-13.55
-13.40
-10.65
-5.56
0.99
7.80
13.75
18.07
20.48
20.99
19.84
17.30
13.65
9.27
4.66
0.38
-3.03
-5.27
-6.31
-6.31
-5.52
-4.16
-2.36
-0.34
1.57
2.90
3.12
1.87
-0.86
-4.65
-8.84
-12.79
-16.15
-19.00
-21.71
-24.78
-28.57
-33.14
-38.17
-43.09
-47.08
-49.28
-48.93
-45.54
-39.05
-29.88
-18.92
-7.34
3.67
13.11
20.29
24.90
26.97
26.80
24.97
22.12
18.88
15.77
13.12
11.13
9.87
9.31
9.34
9.81
10.51
11.27
11.97
12.58
13.06
13.28
13.09
12.28
10.82
8.86
6.72
4.71
2.95
1.24
-0.90
-4.05
-8.62
-14.56
-21.29
-27.74
-32.61
-34.68
-33.18
-28.05
-19.94
-10.11
-0.07
8.85
15.79
20.50
23.19
24.34
24.41
23.73
22.53
21.00
19.42
18.07
17.16
16.72
16.57
16.44
16.14
15.73
15.44
15.54
16.11
16.90
17.42
17.13
15.70
13.12
9.78
6.22
2.92
0.08
-2.38
-4.78
-7.47
-10.65
-14.32
-18.22
-21.91
-24.79
-26.23
-25.70
-22.78
-17.39
-9.84
-0.80
8.72
17.66
25.19
30.85
34.67
36.99
38.23
38.74
38.68
38.14
37.20
36.03
34.86
33.90
33.24
32.87
32.68
32.50
32.17
31.44
30.05
27.77
24.45
20.15
15.07
9.57
4.05
-1.17
-5.87
-10.10
-14.10
-18.34
-23.21
-28.85
-34.83
-40.20
-43.63
-43.86
-40.15
-32.55
-21.93
-9.73
2.50
13.42
22.13
28.24
31.74
32.90
32.17
30.07
27.18
24.12
21.39
19.41
18.42
18.46
19.41
20.98
22.85
24.68
26.11
26.77
26.42
24.85
22.07
18.26
13.78
9.07
4.47
0.21
-3.77
-7.63
-11.73
-16.36
-21.66
-27.50
-33.32
-38.27
-41.19
-41.01
-36.98
-29.03
-17.81
-4.64
8.83
21.08
30.94
37.90
41.92
43.32
42.58
40.19
36.64
32.45
28.16
24.34
21.40
19.52
18.61
18.36
18.42
18.56
18.67
18.77
18.83
18.72
18.17
16.96
14.92
12.10
8.67
4.92
1.14
-2.45
-5.77
-8.90
-12.10
-15.66
-19.85
-24.62
-29.48
-33.49
-35.49
-34.51
-30.08
-22.52
-12.87
-2.58
6.88
14.40
19.43
21.95
22.27
20.74
17.63
13.00
6.88
-0.56
-8.92
-17.58
-25.84
-33.18
-39.33
-44.28
-48.12
-50.91
-52.54
-52.86
-51.79
-49.47
-46.27
-42.66
-39.00
-35.35
-31.38
-26.60
-20.62
-13.49
-5.85
1.11
6.07
7.91
6.23
1.50
-4.98
-11.36
-15.79
-16.77
-13.56
-6.33
3.91
15.59
26.89
36.20
42.42
45.23
45.04
42.85
39.86
37.14
35.35
34.70
35.04
36.17
37.94
40.35
43.44
47.14
51.32
55.76
60.31
64.89
69.42
73.71
77.37
79.81
80.39
78.58
74.14
67.24
58.41
48.50
38.41
28.87
20.26
12.54
5.48
-1.07
-6.91
-11.38
-13.60
-12.75
-8.41
-0.63
10.03
22.68
36.17
49.24
60.63
69.24
74.30
75.49
73.05
67.59
60.13
51.82
43.81
37.01
31.79
27.90
24.65
21.25
17.31
13.06
9.23
6.53
5.17
4.63
3.91
2.13
-0.93
-4.61
-7.67
-8.86
-7.54
-4.02
0.57
4.64
6.69
5.72
1.55
-5.07
-12.59
-18.87
-21.69
-19.20
-10.46
4.41
24.18
46.79
69.73
90.54
107.16
118.28
123.42
122.89
117.63
108.92
98.14
86.60
75.47
65.72
58.08
52.97
50.40
49.94
50.67
51.41
50.96
48.46
43.58
36.52
27.87
18.18
7.65
-4.14
-18.02
-34.86
-55.01
-77.82
-101.61
-124.03
-142.68
-155.69
-162.09
-161.66
-154.74
-141.88
-123.73
-101.13
-75.19
-47.32
-18.96
8.77
35.25
60.24
83.43
104.16
121.37
134.04
141.80
145.31
146.24
146.62
148.16
151.67
156.96
163.02
168.46
172.01
172.67
169.90
163.57
153.96
141.62
127.23
111.48
94.95
78.16
61.55
45.52
30.28
15.79
1.55
-13.38
-30.26
-50.25
-73.67
-99.39
-124.48
-144.67
-155.48
-153.62
-138.16
-110.83
-75.58
-37.56
-1.91
26.96
45.98
53.60
49.88
36.39
15.81
-8.81
-34.72
-60.19
-84.61
-108.29
-131.94
-156.24
-181.50
-207.50
-233.58
-258.70
-281.75
-301.76
-318.16
-330.86
-340.28
-347.20
-352.63
-357.60
-362.93
-368.99
-375.48
-381.37
-385.10
-385.04
-380.03
-369.89
-355.23
-337.08
-316.12
-292.32
-264.85
-232.71
-195.35
-153.10
-107.30
-60.14
-14.51
26.15
58.16
78.32
84.99
79.36
65.90
51.62
44.12
48.96
67.58
96.69
129.37
157.70
175.59
180.80
175.08
162.74
148.26
134.29
121.01
106.76
89.49
68.04
42.56
14.22
-15.10
-43.45
-69.14
-91.21
-109.80
-126.23
-142.60
-160.73
-181.17
-202.67
-222.67
-238.29
-247.28
-248.45
-241.27
-225.55
-201.34
-169.37
-131.52
-90.65
-49.68
-10.29
27.51
64.70
101.86
137.71
169.19
192.86
207.07
213.58
217.00
221.95
229.77
236.68
235.21
218.37
184.37
138.66
92.27
57.04
40.36
42.62
58.03
78.03
94.99
104.26
103.75
92.34
69.05
33.78
-10.71
-57.44
-95.75
-114.62
-107.56
-76.43
-31.75
11.15
38.78
45.77
37.12
25.35
23.84
39.79
70.90
106.98
135.40
146.99
139.43
116.53
84.60
48.47
9.15
-35.54
-88.11
-148.38
-211.72
-269.52
-312.02
-331.76
-326.47
-299.52
-258.27
-210.86
-163.16
-117.10
-71.24
-23.10
28.32
81.10
131.04
173.87
207.48
232.71
252.16
267.61
277.79
278.26
263.63
231.18
183.40
128.02
75.11
32.95
5.44
-7.90
-9.47
-1.03
17.08
44.14
76.70
107.38
126.42
125.33
100.59
55.54
-1.02
-58.20
-107.14
-143.47
-167.65
-183.08
-193.31
-199.83
-201.29
-194.68
-177.42
-149.61
-114.87
-79.43
-50.05
-31.44
-24.98
-28.84
-39.31
-52.32
-64.34
-72.52
-74.58
-69.13
-56.28
-38.32
-19.48
-4.51
3.31
3.68
-0.53
-4.65
-4.41
2.21
14.48
29.78
45.27
59.18
71.04
80.85
88.24
92.08
91.26
85.74
77.31
69.25
64.89
66.12
72.49
81.50
90.04
95.83
98.28
98.25
96.95
94.92
91.72
86.56
79.25
70.73
62.82
57.20
54.53
54.16
54.66
54.72
53.82
52.25
50.56
48.99
47.03
43.59
37.63
28.70
17.58
6.19
-2.74
-6.49
-3.23
7.21
23.03
40.76
56.28
65.98
67.99
62.58
52.04
39.82
29.44
23.54
23.43
28.97
38.83
51.00
63.08
72.76
78.15
78.19
72.86
63.21
50.93
37.87
25.43
14.30
4.56
-3.90
-10.90
-15.90
-18.13
-17.12
-13.12
-7.26
-1.35
2.73
3.47
0.16
-7.01
-17.25
-29.36
-42.03
-53.93
-63.67
-70.04
-72.28
-70.55
-66.14
-61.27
-58.27
-58.55
-61.83
-66.25
-69.34
-69.52
-67.09
-64.24
-63.82
-67.58
-74.88
-82.64
-86.60
-83.27
-71.46
-52.68
-30.25
-7.80
12.31
29.56
44.94
59.99
75.80
92.44
109.12
124.85
139.14
152.26
164.86
177.26
188.88
198.17
203.31
203.21
198.08
189.18
177.68
163.59
145.40
120.98
89.27
51.74
12.60
-22.42
-47.98
-60.84
-60.49
-48.81
-29.16
-5.57
17.75
36.82
48.40
50.64
43.70
29.68
11.82
-6.62
-23.44
-37.84
-50.11
-61.02
-71.25
-81.13
-90.73
-99.93
-108.55
-116.31
-122.99
-128.53
-133.17
-137.41
-141.82
-146.67
-151.59
-155.43
-156.57
-153.43
-145.02
-131.38
-113.57
-93.43
-73.07
-54.39
-38.69
-26.53
-17.78
-11.93
-8.36
-6.61
-6.52
-7.99
-10.86
-14.60
-18.39
-21.22
-22.29
-21.22
-18.23
-14.21
-10.28
-7.60
-6.89
-8.21
-10.98
-14.19
-16.68
-17.33
-15.43
-10.46
-2.48
7.94
19.64
30.76
39.19
43.24
43.85
42.58
42.05
44.18
49.46
56.97
65.31
73.38
80.63
86.81
91.33
93.43
92.03
87.09
79.82
72.08
65.58
61.18
58.49
55.81
50.97
41.56
25.72
3.07
-25.01
-55.23
-82.48
-101.10
-106.83
-95.89
-73.07
-46.50
-24.26
-11.27
-7.95
-10.93
-15.60
-18.73
-19.67
-20.13
-21.50
-23.76
-25.44
-24.59
-20.01
-11.85
-1.35
9.80
20.12
29.02
36.24
41.42
43.97
43.38
39.72
33.91
27.50
21.96
18.49
17.62
19.22
22.72
27.33
32.24
36.54
39.26
39.49
36.93
31.93
25.53
18.87
12.70
7.06
1.05
-6.79
-18.16
-34.36
-56.08
-82.65
-112.01
-141.33
-167.42
-187.32
-198.71
-200.24
-191.68
-173.91
-148.70
-118.56
-86.32
-54.80
-26.36
-2.65
15.56
28.53
37.36
43.81
49.77
56.80
65.60
75.94
86.82
96.88
105.08
111.05
115.06
117.67
119.33
119.99
119.15
116.02
109.93
100.53
87.96
72.87
56.19
39.00
22.24
6.45
-8.34
-22.54
-36.64
-50.82
-64.76
-77.75
-88.98
-97.73
-103.40
-105.35
-103.08
-96.54
-86.91
-76.85
-70.07
-70.16
-79.05
-96.23
-118.84
-143.14
-165.99
-186.01
-203.30
-218.29
-230.34
-237.32
-236.13
-224.29
-201.32
-169.22
-131.72
-92.78
-55.16
-19.83
13.36
44.46
72.27
94.24
107.46
110.16
102.79
88.09
69.89
51.54
34.60
18.57
1.74
-17.41
-38.90
-60.83
-79.88
-92.56
-96.44
-90.96
-77.46
-58.59
-37.32
-16.13
3.50
20.95
36.04
48.54
57.91
63.49
64.94
62.64
57.73
51.87
46.75
43.62
43.03
44.81
48.21
52.18
55.63
57.59
57.46
55.09
50.79
45.23
39.25
33.62
28.89
25.31
22.87
21.27
19.98
18.32
15.63
11.58
6.44
1.25
-2.41
-2.95
0.69
8.51
19.35
31.27
42.23
50.71
56.15
58.88
59.74
59.53
58.76
57.48
55.59
53.10
50.26
47.58
45.56
44.57
44.69
45.77
47.58
49.83
52.21
54.37
55.85
56.20
55.11
52.64
49.16
45.28
41.53
38.16
35.01
31.59
27.29
21.62
14.40
5.84
-3.31
-11.92
-18.53
-21.70
-20.41
-14.36
-4.11
9.12
23.82
38.64
52.52
64.79
74.82
81.97
85.56
85.12
80.73
73.10
63.54
53.59
44.62
37.50
32.53
29.58
28.31
28.41
29.73
32.23
35.86
40.30
44.91
48.74
50.72
50.03
46.33
39.92
31.69
22.72
13.87
5.52
-2.61
-11.08
-20.30
-30.02
-39.11
-45.75
-47.98
-44.41
-34.73
-19.82
-1.48
18.16
37.11
53.88
67.44
77.12
82.45
83.18
79.49
72.12
62.50
52.47
43.99
38.55
36.79
38.41
42.30
46.94
50.89
53.10
53.09
50.87
46.80
41.34
34.95
28.06
21.02
14.16
7.74
1.83
-3.70
-9.18
-14.89
-20.82
-26.44
-30.70
-32.33
-30.25
-23.98
-13.84
-0.82
13.69
28.24
41.51
52.49
60.55
65.51
67.69
67.85
66.97
65.86
64.88
63.83
62.11
59.09
54.44
48.18
40.65
32.22
23.17
13.66
3.88
-5.81
-14.86
-22.62
-28.56
-32.55
-34.90
-36.37
-37.97
-40.70
-45.34
-52.12
-60.73
-70.20
-79.08
-85.76
-88.77
-87.18
-80.70
-69.82
-55.59
-39.39
-22.68
-6.74
7.38
18.97
27.62
33.23
35.98
36.33
34.95
32.59
29.98
27.66
25.94
24.87
24.29
23.92
23.41
22.37
20.42
17.28
12.76
6.90
-0.01
-7.50
-15.06
-22.34
-29.26
-36.07
-43.25
-51.29
-60.46
-70.60
-80.89
-90.02
-96.33
-98.27
-94.86
-86.04
-72.74
-56.66
-39.80
-23.93
-10.31
0.46
8.22
12.99
14.81
13.76
10.15
4.69
-1.55
-7.31
-11.57
-13.83
-14.28
-13.53
-12.36
-11.32
-10.69
-10.52
-10.81
-11.69
-13.34
-15.82
-18.92
-22.10
-24.69
-26.15
-26.43
-25.99
-25.78
-26.83
-29.92
-35.23
-42.17
-49.41
-55.25
-58.03
-56.63
-50.82
-41.31
-29.53
-17.30
-6.30
2.21
7.68
10.25
10.64
9.98
9.50
10.21
12.63
16.72
21.87
27.20
31.90
35.50
38.00
39.75
41.26
42.93
44.94
47.17
49.33
51.02
51.86
51.60
50.16
47.59
44.13
40.10
35.86
31.68
27.63
23.48
18.78
13.00
5.88
-2.22
-10.29
-16.70
-19.77
-18.26
-11.93
-1.63
10.91
23.64
34.76
43.11
48.25
50.28
49.53
46.39
41.24
34.58
27.11
19.73
13.40
8.84
6.33
5.62
6.14
7.22
8.46
9.76
11.23
12.92
14.65
15.93
16.24
15.19
12.85
9.69
6.34
3.34
0.90
-1.15
-3.16
-5.60
-8.77
-12.79
-17.47
-22.31
-26.49
-29.00
-28.90
-25.68
-19.46
-11.03
-1.67
7.35
15.09
21.15
25.59
28.67
30.66
31.63
31.59
30.56
28.77
26.59
24.51
22.96
22.16
22.09
22.52
23.09
23.36
22.89
21.16
17.70
12.17
4.52
-4.87
-15.24
-25.50
-34.55
-41.50
-45.97
-48.11
-48.49
-47.97
-47.31
-46.97
-46.85
-46.23
-44.00
-39.01
-30.56
-18.81
-4.87
9.43
22.12
31.67
37.48
39.96
40.16
39.25
38.02
36.62
34.60
31.28
26.11
18.98
10.37
1.16
-7.41
-14.11
-17.91
-18.16
-14.83
-8.53
-0.39
8.15
15.61
20.79
22.86
21.41
16.37
7.97
-3.29
-16.81
-31.95
-48.16
-64.89
-81.36
-96.39
-108.43
-115.94
-118.02
-115.00
-108.44
-100.67
-93.79
-88.93
-85.92
-83.75
-81.29
-78.02
-74.15
-70.16
-66.16
-61.52
-55.06
-45.61
-32.81
-17.44
-1.33
13.40
25.13
33.20
37.90
39.92
39.80
37.60
33.20
26.78
19.35
12.64
8.47
7.87
10.37
14.25
17.32
18.17
16.96
15.29
15.37
18.83
25.88
35.38
45.45
54.39
61.35
66.33
69.80
72.19
73.50
73.41
71.53
67.77
62.49
56.56
51.06
46.98
44.82
44.42
44.99
45.36
44.48
41.78
37.38
31.96
26.43
21.67
18.35
16.88
17.41
19.86
23.81
28.61
33.57
38.42
43.61
50.47
60.88
76.70
98.87
126.88
158.61
190.83
220.10
243.84
261.13
272.86
281.15
288.22
295.22
301.62
305.46
304.29
296.33
281.24
260.15
235.05
207.97
180.47
153.49
127.59
103.13
80.26
58.80
37.97
16.66
-6.20
-31.12
-57.84
-85.40
-112.67
-138.84
-163.72
-187.83
-212.38
-239.01
-269.23
-303.47
-340.04
-374.75
-401.57
-414.58
-410.25
-388.97
-355.05
-314.98
-274.91
-238.75
-207.56
-180.48
-156.25
-134.23
-114.53
-97.30
-82.03
-67.43
-52.05
-35.16
-17.30
-0.08
14.56
25.47
32.99
39.04
46.38
57.29
72.42
90.23
107.10
118.54
120.56
110.99
90.25
61.10
27.94
-4.31
-31.23
-49.55
-57.47
-54.76
-42.66
-23.65
-1.06
21.57
41.04
54.93
61.62
60.25
50.58
33.10
9.25
-18.64
-47.69
-75.19
-99.35
-119.61
-136.31
-150.05
-161.08
-169.16
-173.90
-175.29
-174.13
-171.93
-170.52
-171.49
-175.86
-184.07
-196.10
-211.78
-230.62
-251.44
-271.92
-288.52
-297.16
-294.48
-279.39
-253.86
-222.74
-192.22
-167.94
-153.43
-149.49
-154.69
-166.41
-181.61
-197.25
-210.32
-217.90
-217.52
-207.84
-189.15
-163.38
-133.49
-102.57
-72.91
-45.52
-19.98
5.29
32.40
63.21
98.47
137.07
175.98
211.06
238.32
255.34
261.95
259.92
252.01
240.70
227.65
213.82
200.00
187.35
177.24
170.77
168.03
167.91
168.45
167.64
164.14
157.53
148.01
135.69
120.04
99.90
74.24
43.30
9.53
-22.43
-47.06
-60.06
-60.11
-49.60
-33.71
-18.33
-8.11
-5.33
-10.06
-21.26
-37.71
-58.41
-82.24
-107.44
-131.60
-152.28
-168.02
-178.97
-186.69
-193.10
-199.29
-204.69
-207.43
-205.44
-197.85
-185.77
-172.01
-159.87
-151.61
-147.45
-145.39
-142.13
-134.32
-119.86
-98.45
-71.56
-41.76
-11.92
15.47
38.58
56.27
68.01
73.79
74.25
70.72
65.14
59.69
56.20
55.51
57.24
59.94
61.76
61.22
57.79
52.08
45.37
39.06
33.92
29.90
26.22
21.86
16.19
9.34
2.26
-3.64
-6.95
-6.71
-2.68
4.73
14.56
25.64
36.77
46.98
55.69
62.77
68.47
73.25
77.50
81.30
84.39
86.31
86.64
85.30
82.60
79.25
76.00
73.49
72.07
71.75
72.31
73.38
74.53
75.24
74.93
73.04
69.20
63.44
56.26
48.54
41.25
35.14
30.46
26.97
24.01
20.84
16.85
11.83
6.13
0.68
-3.14
-3.87
-0.44
7.39
18.87
32.40
46.10
58.38
68.30
75.68
80.74
83.81
85.09
84.72
82.94
80.29
77.49
75.31
74.25
74.46
75.77
77.94
80.79
84.31
88.52
93.28
98.18
102.62
106.06
108.23
109.31
109.84
110.56
112.12
114.84
118.62
122.93
126.87
129.44
129.83
127.77
123.82
119.41
116.51
116.97
121.80
130.62
141.56
151.93
159.16
161.87
160.35
156.32
152.07
149.33
148.67
149.46
150.59
151.24
151.35
151.41
151.84
152.49
152.64
151.59
149.35
146.96
146.06
148.00
152.87
159.24
164.61
166.41
163.00
154.14
140.73
124.24
106.00
86.80
67.17
47.73
29.58
14.22
3.07
-3.42
-6.29
-8.06
-11.92
-20.30
-33.67
-49.92
-64.97
-74.36
-75.12
-67.14
-53.35
-38.64
-28.05
-25.13
-31.04
-44.64
-63.47
-84.95
-107.13
-129.08
-150.60
-171.92
-193.56
-216.49
-242.36
-273.07
-309.82
-351.62
-394.44
-431.57
-455.64
-461.32
-447.67
-418.76
-382.20
-346.24
-316.97
-296.83
-284.88
-278.41
-274.69
-271.93
-269.32
-266.41
-262.58
-256.92
-248.52
-236.85
-222.00
-204.75
-186.15
-167.34
-149.07
-131.58
-114.54
-97.13
-78.40
-57.62
-34.58
-9.79
15.63
40.25
62.63
81.75
97.16
108.91
117.35
122.86
125.68
125.95
123.90
120.03
115.21
110.47
106.63
103.91
101.77
99.24
95.37
89.72
82.51
74.41
66.13
58.01
49.84
41.16
31.48
20.72
9.26
-2.14
-12.63
-21.47
-28.16
-32.52
-34.75
-35.41
-35.36
-35.63
-37.10
-40.06
-44.10
-48.02
-50.24
-49.38
-44.72
-36.50
-25.77
-14.04
-2.74
7.03
14.70
20.14
23.49
24.99
24.95
23.69
21.61
19.31
17.43
16.59
17.13
18.95
21.47
23.78
25.03
24.78
23.19
20.94
18.94
17.84
17.75
18.27
18.68
18.44
17.38
15.74
14.02
12.64
11.67
10.89
9.80
7.88
4.72
0.14
-5.78
-12.59
-19.45
-25.16
-28.37
-27.99
-23.63
-15.76
-5.67
5.03
14.90
23.13
29.52
34.28
37.67
39.80
40.66
40.33
39.16
37.78
36.87
36.90
37.97
39.79
41.90
43.89
45.60
47.04
48.37
49.69
50.98
52.05
52.59
52.37
51.28
49.56
47.61
45.90
44.70
43.88
42.89
40.92
37.22
31.30
23.12
13.04
1.81
-9.46
-19.43
-26.65
-29.96
-28.84
-23.79
-16.21
-7.92
-0.56
4.86
8.11
9.49
9.38
8.03
5.48
1.84
-2.51
-6.85
-10.27
-12.05
-11.85
-9.89
-6.76
-3.20
0.20
3.16
5.72
8.13
10.55
12.96
15.03
16.27
16.31
15.02
12.65
9.63
6.50
3.61
1.10
-1.13
-3.27
-5.57
-8.26
-11.44
-15.05
-18.70
-21.72
-23.24
-22.51
-19.18
-13.49
-6.31
1.22
7.92
12.98
16.05
17.15
16.62
14.90
12.45
9.63
6.72
3.91
1.32
-0.89
-2.53
-3.35
-3.22
-2.17
-0.46
1.44
3.01
3.79
3.56
2.37
0.50
-1.71
-3.97
-6.16
-8.34
-10.73
-13.58
-17.09
-21.34
-26.29
-31.64
-36.83
-40.99
-43.02
-41.84
-36.81
-28.00
-16.32
-3.30
9.33
20.09
28.14
33.28
35.87
36.51
35.83
34.32
32.31
30.02
27.66
25.41
23.56
22.37
22.01
22.48
23.54
24.84
25.96
26.56
26.50
25.80
24.65
23.29
21.99
20.91
20.06
19.19
17.86
15.48
11.58
6.02
-0.72
-7.53
-12.87
-15.22
-13.56
-7.73
1.40
12.27
23.05
32.23
38.91
42.99
44.90
45.29
44.72
43.44
41.49
38.85
35.68
32.41
29.66
27.98
27.56
28.15
29.21
30.10
30.34
29.74
28.32
26.21
23.57
20.65
17.72
15.06
12.92
11.30
10.03
8.85
7.58
6.31
5.37
5.28
6.56
9.64
14.80
22.20
31.83
43.54
57.05
71.95
87.89
104.53
121.68
139.18
156.83
174.31
191.24
207.25
222.17
236.17
249.71
263.38
277.48
291.66
304.76
315.02
320.62
320.36
314.09
302.77
288.07
271.76
255.14
238.86
223.06
207.63
192.51
177.74
163.44
149.57
135.97
122.36
108.50
94.37
80.15
66.26
53.18
41.36
31.06
22.34
14.95
8.48
2.38
-3.88
-10.69
-18.16
-26.22
-34.59
-43.05
-51.53
-60.35
-70.06
-81.36
-94.78
-110.40
-127.80
-146.19
-164.72
-182.82
-200.41
-217.87
-235.91
-255.40
-277.18
-301.91
-329.62
-359.20
-388.15
-412.86
-429.69
-436.25
-432.46
-420.67
-404.68
-388.22
-373.54
-360.88
-348.99
-336.06
-320.79
-302.83
-282.72
-261.54
-240.55
-221.02
-204.12
-190.71
-181.18
-175.37
-172.61
-171.85
-171.90
-171.71
-170.68
-168.62
-165.84
-163.02
-161.00
-160.38
-160.89
-161.42
-160.19
-155.73
-147.64
-137.10
-126.61
-119.30
-117.72
-122.82
-133.73
-147.87
-162.08
-173.10
-178.28
-176.09
-166.31
-150.00
-128.81
-104.67
-79.02
-53.51
-28.76
-4.33
20.86
47.56
75.55
103.84
130.35
153.08
168.61
175.02
172.62
163.51
150.45
135.86
122.26
111.05
103.47
97.17
89.87
80.50
69.21
56.60
43.02
29.59
16.29
3.45
-12.43
-33.60
-59.60
-87.63
-114.58
-138.98
-160.15
-180.09
-175.22
-133.60
-59.05
31.09
118.26
190.84
237.45
262.95
271.43
267.21
251.67
227.62
200.96
177.49
160.66
150.60
146.52
146.08
148.22
149.86
148.63
143.12
132.94
118.58
101.49
85.18
72.42
65.39
62.63
61.21
58.42
53.11
45.97
38.96
35.02
35.72
41.31
49.53
57.10
60.92
58.78
49.78
34.37
14.69
-6.13
-23.76
-33.67
-32.02
-16.90
10.33
44.63
78.26
103.33
114.43
110.98
97.34
80.79
68.35
63.62
65.60
69.67
70.36
64.17
51.22
34.72
19.11
7.80
1.79
-0.44
-1.64
-4.37
-9.84
-17.77
-27.12
-36.75
-45.92
-54.23
-61.16
-65.72
-66.54
-62.31
-52.53
-37.98
-20.75
-3.46
11.67
23.61
32.48
38.96
43.73
47.27
49.69
50.95
50.93
49.74
47.96
46.87
48.17
53.18
61.61
70.84
76.43
74.34
63.41
46.60
29.78
18.49
14.62
15.12
13.78
5.08
-12.51
-35.60
-57.92
-73.89
-81.60
-83.17
-82.93
-84.31
-87.69
-90.48
-89.16
-81.76
-69.24
-55.04
-43.28
-36.69
-35.47
-37.49
-39.49
-38.67
-33.56
-24.22
-11.80
2.23
16.79
31.71
47.64
65.44
85.17
105.24
122.43
132.95
134.21
126.18
111.67
94.98
79.97
68.59
60.52
54.07
47.59
40.51
33.35
27.06
22.12
18.15
14.21
9.42
3.46
-3.49
-11.18
-19.95
-30.92
-45.63
-65.25
-89.72
-117.44
-145.56
-170.87
-190.84
-204.30
-211.43
-213.32
-211.11
-205.43
-196.24
-183.22
-166.35
-146.38
-124.71
-102.60
-80.44
-57.27
-31.11
-0.10
36.30
76.55
117.25
154.34
184.73
207.41
223.69
236.30
247.88
259.67
270.94
279.62
283.38
280.78
271.90
258.05
240.99
222.22
202.60
182.55
162.41
142.63
123.69
105.73
88.42
71.05
52.86
33.53
13.18
-7.60
-28.12
-47.66
-65.59
-81.30
-94.27
-104.20
-111.22
-115.85
-118.72
-120.34
-120.81
-119.97
-117.67
-114.20
-110.35
-107.21
-105.64
-105.84
-107.25
-108.77
-109.31
-108.21
-105.48
-101.73
-97.88
-94.91
-93.56
-94.24
-96.88
-100.83
-104.82
-107.12
-105.99
-100.17
-89.45
-74.82
-58.28
-42.15
-28.44
-18.22
-11.47
-7.37
-4.81
-2.92
-1.42
-0.53
-0.59
-1.72
-3.55
-5.29
-6.06
-5.37
-3.32
-0.54
2.15
4.20
5.49
6.24
6.79
7.28
7.55
7.32
6.30
4.43
1.84
-1.23
-4.51
-7.77
-10.89
-13.89
-16.92
-20.32
-24.64
-30.48
-38.17
-47.52
-57.55
-66.57
-72.50
-73.42
-68.18
-56.87
-40.86
-22.46
-4.33
11.27
22.93
30.24
33.58
33.75
31.62
27.94
23.39
18.63
14.29
10.97
9.10
8.72
9.52
10.88
12.10
12.68
12.41
11.49
10.32
9.30
8.59
8.02
7.09
5.26
2.12
-2.43
-8.05
-14.12
-19.93
-24.87
-28.65
-31.47
-33.96
-37.03
-41.59
-48.10
-56.34
-65.27
-73.13
-77.88
-77.81
-72.00
-60.73
-45.44
-28.39
-11.95
1.92
12.17
18.65
21.83
22.42
21.03
18.24
14.59
10.80
7.62
5.74
5.44
6.55
8.60
11.02
13.42
15.69
17.85
19.92
21.75
23.00
23.21
22.08
19.53
15.88
11.69
7.66
4.37
2.04
0.43
-1.18
-3.73
-8.11
-14.69
-23.12
-32.17
-40.06
-44.83
-44.94
-39.72
-29.51
-15.59
0.31
16.42
31.30
43.90
53.55
59.87
62.71
62.23
58.99
54.05
48.77
44.60
42.83
44.21
48.96
56.61
66.22
76.57
86.48
95.06
101.81
106.51
109.03
109.21
106.75
101.50
93.54
83.41
71.92
59.92
48.09
36.71
25.71
14.81
3.76
-7.49
-18.62
-28.78
-36.61
-40.51
-39.14
-31.93
-19.40
-3.15
14.64
31.77
46.59
58.24
66.52
71.70
74.29
74.95
74.43
73.59
73.19
73.73
75.28
77.35
79.07
79.44
77.66
73.34
66.67
58.26
48.85
39.02
28.97
18.54
7.40
-4.57
-17.08
-29.39
-40.59
-50.01
-57.65
-64.25
-71.06
-79.36
-89.95
-102.73
-116.67
-130.02
-140.71
-146.95
-147.70
-142.97
-133.83
-122.19
-110.11
-99.26
-90.46
-83.63
-78.07
-72.99
-67.92
-62.79
-57.75
-52.79
-47.61
-41.64
-34.48
-26.13
-17.19
-8.60
-1.24
4.38
8.26
10.81
12.56
13.95
15.22
16.27
16.75
16.04
13.41
8.32
0.73
-8.70
-18.83
-28.51
-37.12
-44.89
-52.67
-61.55
-72.22
-84.70
-98.28
-111.73
-123.43
-131.75
-135.18
-132.65
-123.83
-109.12
-89.44
-65.84
-39.17
-10.19
19.97
49.33
75.05
94.05
104.17
105.14
98.86
88.76
78.43
70.40
65.47
62.98
61.54
60.05
58.05
55.66
53.18
50.60
47.52
43.34
37.68
30.66
23.04
15.95
10.37
6.84
5.07
4.21
3.19
1.04
-2.71
-8.06
-14.54
-21.43
-27.72
-32.20
-33.59
-30.83
-23.61
-12.52
0.86
14.51
26.52
35.72
41.77
45.02
46.10
45.68
44.34
42.67
41.30
40.77
41.35
42.92
44.94
46.80
48.09
48.88
49.57
50.67
52.42
54.46
55.95
55.84
53.41
48.63
42.39
36.19
31.64
29.78
30.50
32.37
32.88
29.20
19.08
1.81
-21.09
-45.84
-67.16
-79.79
-80.33
-68.72
-48.43
-25.45
-6.08
5.29
7.43
2.05
-7.57
-18.42
-28.85
-38.58
-47.92
-56.74
-64.02
-68.20
-67.89
-62.47
-52.27
-38.21
-21.45
-3.25
14.96
31.33
43.72
50.17
49.63
42.63
31.34
19.06
9.14
3.99
4.34
9.35
17.17
25.78
33.63
39.93
44.44
47.20
48.26
47.68
45.75
43.04
40.41
38.72
38.51
39.90
42.74
47.01
53.25
62.54
76.06
94.37
116.73
140.94
163.96
183.13
197.28
207.15
214.64
221.47
227.85
232.03
230.66
219.72
195.63
155.85
99.89
30.05
-47.82
-124.23
-187.48
-226.54
-234.60
-211.84
-166.02
-110.22
-59.38
-25.89
-16.28
-30.15
-61.70
-102.67
-145.29
-183.99
-214.55
-234.06
-239.66
-228.15
-196.46
-143.44
-71.91
10.77
93.42
164.11
211.37
227.47
211.53
170.70
118.55
70.80
40.05
31.75
44.41
69.38
95.41
113.49
119.80
115.50
104.30
89.90
66.67
35.31
1.26
-28.14
-47.46
-54.62
-50.49
-38.36
-23.35
-10.60
-2.23
1.20
0.81
-0.85
-0.96
2.35
8.92
16.42
22.08
25.15
24.75
21.38
16.78
13.24
12.68
15.13
18.79
21.83
23.53
21.70
15.52
5.76
-6.44
-20.91
-35.40
-50.82
-68.27
-88.15
-113.10
-143.72
-178.30
-214.44
-249.65
-284.63
-320.47
-356.39
-389.95
-421.62
-449.73
-470.44
-479.72
-474.14
-455.66
-428.21
-395.88
-338.37
-254.03
-157.62
-68.67
-6.63
38.83
77.51
114.22
150.01
180.14
194.68
187.66
160.48
121.34
83.06
55.18
44.01
51.92
77.22
113.46
154.86
197.46
237.95
273.23
297.56
306.74
300.15
281.16
255.17
228.78
207.61
193.87
187.27
184.65
183.34
181.92
179.98
177.56
173.92
167.47
155.48
137.03
113.53
89.12
68.29
47.63
26.78
7.51
-8.47
-23.04
-38.24
-53.75
-66.86
-75.24
-78.85
-78.77
-78.09
-81.04
-94.02
-121.67
-165.44
-220.64
-281.42
-341.04
-391.48
-425.94
-425.55
-384.25
-314.23
-238.38
-174.95
-130.38
-101.45
-81.17
-64.67
-51.24
-43.96
-44.85
-51.69
-58.69
-60.38
-54.11
-40.37
-21.67
-3.42
9.28
14.48
14.54
14.81
20.55
35.13
59.44
91.81
128.21
162.06
186.45
196.64
191.61
174.02
149.44
124.48
104.59
92.15
85.81
82.05
77.55
70.89
62.53
54.02
46.79
41.40
37.54
34.54
32.07
30.55
30.96
33.97
39.37
46.39
54.17
62.23
70.68
79.94
90.27
101.47
112.83
123.11
131.11
135.96
137.15
134.42
127.84
118.04
106.62
96.15
89.36
88.64
95.18
108.09
124.35
139.84
150.71
154.97
153.18
146.59
137.68
129.43
124.34
123.64
127.40
134.17
141.91
148.43
149.15
141.10
124.18
100.57
72.89
43.58
13.23
-17.86
-48.89
-82.63
-120.04
-159.37
-197.61
-233.06
-265.53
-298.20
-334.60
-376.74
-429.95
-494.87
-565.03
-628.84
-674.98
-695.72
-691.89
-669.57
-606.14
-500.09
-371.58
-248.99
-149.47
-82.34
-34.68
2.54
34.63
67.61
100.59
131.02
157.96
182.89
207.69
234.44
262.85
293.69
332.16
378.34
429.33
479.76
523.41
553.72
566.29
558.74
512.72
428.72
323.66
222.16
140.26
80.90
39.13
9.51
-12.18
-27.33
-35.00
-36.61
-36.11
-38.52
-46.22
-58.29
-71.73
-84.37
-92.75
-93.38
-85.48
-66.58
-38.54
-5.73
26.82
55.70
79.62
98.57
113.56
126.75
138.13
145.65
147.61
143.40
132.79
117.73
99.34
78.95
57.79
36.20
13.42
-11.14
-37.48
-65.21
-93.99
-124.31
-156.93
-192.37
-230.38
-269.10
-304.25
-329.86
-340.40
-333.09
-309.64
-275.45
-237.42
-201.62
-171.72
-148.53
-130.97
-117.56
-107.22
-99.52
-93.90
-89.12
-83.53
-75.75
-65.25
-52.63
-39.33
-26.96
-16.77
-9.15
-3.73
0.23
3.35
5.89
7.67
8.42
8.09
7.02
5.95
5.52
5.97
6.83
7.04
5.52
1.76
-3.73
-9.35
-12.97
-12.60
-7.23
2.74
15.55
28.64
39.50
46.40
48.97
48.00
45.00
41.40
38.08
35.29
32.90
30.88
29.44
28.98
29.71
31.40
33.32
34.70
35.01
34.25
32.91
31.40
29.83
27.84
24.83
20.52
15.20
9.76
5.22
2.25
0.82
0.26
-0.37
-1.59
-3.31
-4.75
-4.74
-2.42
2.50
9.53
17.74
26.10
33.83
40.50
45.93
49.96
52.38
52.96
51.60
48.58
44.51
40.20
36.45
33.76
32.17
31.34
30.68
29.50
27.39
24.22
20.21
15.87
11.68
7.99
4.82
1.97
-0.94
-4.23
-8.04
-12.30
-16.75
-21.09
-25.13
-28.87
-32.56
-36.51
-40.99
-46.11
-51.82
-57.95
-64.19
-70.06
-74.75
-77.17
-76.14
-70.84
-61.17
-47.96
-32.85
-17.79
-4.53
5.74
12.51
15.93
16.50
14.97
12.15
8.81
5.69
3.42
2.44
2.99
4.98
8.03
11.54
14.84
17.37
18.82
19.16
18.50
17.00
14.78
11.91
8.55
4.93
1.19
-2.59
-6.41
-10.37
-14.60
-19.17
-24.16
-29.68
-35.84
-43.04
-51.28
-59.95
-67.92
-73.72
-76.03
-74.18
-68.33
-59.45
-49.43
-40.07
-32.75
-28.23
-26.62
-27.46
-29.90
-32.66
-34.13
-33.22
-28.72
-19.88
-6.83
9.02
25.19
38.57
47.06
53.84
61.19
71.06
84.12
99.34
114.47
127.10
135.48
139.92
142.19
143.52
144.13
143.04
138.54
129.32
115.30
97.58
77.69
57.41
37.46
17.35
-4.17
-28.48
-56.38
-83.69
-109.93
-134.76
-156.76
-173.19
-179.91
-172.84
-150.24
-114.46
-71.92
-31.62
-0.73
17.78
25.30
25.97
24.07
22.00
20.02
17.43
13.40
8.74
5.15
3.94
5.06
7.25
8.74
8.05
4.86
-0.26
-5.78
-10.13
-12.43
-12.89
-12.54
-12.71
-14.43
-17.90
-22.68
-27.66
-31.63
-33.75
-33.90
-32.51
-30.28
-27.73
-25.00
-21.79
-17.52
-11.75
-4.05
5.28
15.42
25.29
33.81
40.27
44.50
46.83
47.90
48.41
48.72
48.87
48.56
47.47
45.41
42.50
39.31
36.52
34.94
35.15
37.56
42.04
47.72
52.85
55.18
52.60
44.09
30.33
13.51
-3.38
-17.72
-28.01
-34.24
-37.32
-38.53
-38.92
-39.14
-39.60
-40.48
-41.70
-42.85
-43.39
-42.97
-41.83
-40.99
-41.77
-45.35
-52.28
-62.19
-73.96
-86.14
-97.15
-105.55
-110.14
-110.14
-105.50
-97.38
-88.14
-80.73
-77.73
-80.26
-87.33
-95.95
-102.06
-102.04
-94.13
-79.06
-59.96
-41.18
-26.78
-19.27
-18.89
-23.79
-30.81
-36.56
-38.56
-35.84
-29.05
-19.99
-10.84
-3.29
1.94
5.11
7.17
9.28
12.36
16.96
23.19
30.89
39.61
48.61
56.88
63.20
66.37
65.66
61.02
53.30
43.95
34.81
27.45
22.76
20.84
21.13
22.87
25.44
28.61
32.35
36.58
40.87
44.45
46.38
45.97
42.99
37.78
31.15
24.01
17.15
11.03
5.73
0.98
-3.74
-9.12
-15.80
-24.04
-33.46
-42.87
-50.40
-53.99
-52.07
-44.10
-30.92
-14.48
2.72
18.39
30.98
39.88
45.24
47.60
47.59
45.78
42.74
39.14
35.76
33.36
32.42
33.03
34.88
37.40
40.10
42.73
45.24
47.65
49.83
51.38
51.81
50.72
48.14
44.48
40.39
36.45
32.92
29.72
26.51
22.99
19.07
15.03
11.49
9.29
9.29
12.09
17.76
25.61
34.24
41.87
46.91
48.49
46.81
42.89
38.08
33.45
29.38
25.55
21.33
