0
1561072856.0
64.0
-0.0
-0.0
-0.0
-0.0
-0.0
-0.0
-0.0
-0.0
-0.0
-0.0
0.0
0.01
0.01
-0.0
-0.03
-0.05
-0.05
0.0
0.13
0.36
0.66
1.01
1.37
1.72
2.06
2.4
2.79
3.24
3.8
4.42
5.06
5.67
6.21
6.69
7.17
7.73
8.39
9.28
10.31
11.37
12.36
13.22
14.0
14.86
16.01
17.6
19.85
22.56
25.48
28.31
30.88
33.26
35.77
38.84
42.78
48.0
54.13
60.68
67.05
72.91
78.3
83.71
89.83
97.2
106.37
116.87
127.93
138.67
148.52
157.5
166.22
176.01
185.55
197.16
211.5
228.69
247.57
265.22
277.26
279.03
267.12
240.64
202.03
155.21
104.57
53.37
3.15
-45.89
-93.91
-140.69
-185.43
-226.61
-263.28
-294.75
-320.6
-340.26
-352.83
-357.18
-352.28
-338.38
-316.44
-288.42
-256.7
-223.62
-191.06
-160.16
-131.34
-104.54
-79.52
-56.05
-34.23
-14.34
3.27
18.33
30.77
40.7
48.3
54.2
58.85
62.44
65.02
66.58
67.13
66.76
65.63
63.95
61.92
59.65
57.21
54.64
51.95
49.17
46.34
43.49
40.68
37.92
35.22
32.56
29.92
27.32
24.74
22.19
19.68
17.22
14.82
12.49
10.21
8.02
5.92
3.94
2.08
0.36
-1.21
-2.64
-3.94
-5.11
-6.16
-7.12
-7.96
-8.7
-9.34
-9.88
-10.31
-10.66
-10.92
-11.12
-11.27
-11.38
-11.48
-11.58
-11.68
-11.81
-11.96
-12.15
-12.35
-12.57
-12.79
-13.01
-13.21
-13.39
-13.55
-13.68
-13.77
-13.85
-13.91
-13.96
-14.0
-14.05
-14.1
-14.15
-14.2
-14.24
-14.28
-14.32
-14.34
-14.35
-14.35
-14.35
-14.35
-14.34
-14.34
-14.34
-14.34
-14.35
-14.36
-14.38
-14.41
-14.44
-14.49
-14.55
-14.62
-14.71
-14.82
-14.94
-15.07
-15.2
-15.32
-15.41
-15.46
-15.46
-15.39
-15.23
-14.99
-14.65
-14.22
-13.72
-13.16
-12.57
-11.99
-11.43
-10.92
-10.5
-10.16
-9.91
-9.76
-9.69
-9.68
-9.7
-9.75
-9.79
-9.8
-9.77
-9.67
-9.49
-9.22
-8.84
-8.35
-7.72
-6.96
-6.06
-5.0
-3.77
-2.39
-0.87
0.78
2.52
4.35
6.29
8.37
10.63
13.13
15.9
18.94
22.23
25.76
29.5
33.46
37.64
42.09
46.81
51.81
57.04
62.42
67.84
73.24
78.57
83.89
89.23
94.66
100.14
105.5
110.52
114.91
118.47
121.11
122.9
124.03
124.63
124.69
124.0
122.16
118.73
113.42
106.24
97.49
87.7
77.33
66.63
55.46
43.36
29.79
14.36
-2.88
-21.48
-40.78
-60.07
-78.99
-97.54
-116.09
-135.35
-156.25
-179.87
-206.93
-237.2
-268.93
-298.76
-322.39
-335.98
-337.53
-327.62
-309.03
-285.53
-260.53
-236.23
-213.6
-192.92
-174.32
-157.98
-143.91
-131.72
-120.58
-109.58
-98.19
-86.49
-74.98
-64.32
-54.87
-46.69
-39.57
-33.24
-27.47
-22.08
-16.96
-12.07
-7.44
-3.13
0.75
4.14
6.96
9.24
11.1
12.77
14.46
16.25
18.07
19.69
20.79
21.16
20.82
20.06
19.41
19.34
19.99
21.11
22.19
22.72
22.5
21.69
20.72
20.04
19.84
20.0
20.18
20.04
19.41
18.36
17.19
16.2
15.6
15.41
15.45
15.5
15.34
14.9
14.27
13.74
13.59
13.94
14.65
15.32
15.54
15.07
14.07
13.01
12.38
12.44
13.06
13.81
14.19
13.98
13.3
12.53
12.06
12.06
12.41
12.77
12.9
12.7
12.3
11.92
11.72
11.67
11.59
11.26
10.59
9.73
8.96
8.53
8.49
8.67
8.66
8.12
6.99
5.41
3.74
2.26
1.1
0.13
-0.82
-1.97
-3.37
-4.93
-6.48
-7.89
-9.15
-10.33
-11.59
-13.05
-14.9
-17.19
-19.87
-22.83
-26.02
-29.47
-33.25
-37.38
-41.72
-46.44
-51.68
-57.59
-64.46
-72.53
-81.79
-91.87
-102.12
-111.75
-121.23
-131.39
-143.35
-158.08
-175.87
-196.01
-216.96
-236.9
-254.45
-270.67
-287.56
-307.39
-331.81
-360.94
-393.11
-425.38
-454.48
-477.67
-495.12
-507.56
-515.73
-519.94
-520.06
-515.86
-507.4
-494.93
-465.58
-409.84
-321.13
-198.81
-49.86
112.23
271.6
414.61
532.61
622.33
682.55
714.83
722.47
710.1
683.34
648.17
609.81
571.85
536.0
500.99
465.18
427.63
388.78
350.12
313.84
281.58
253.98
230.48
208.76
186.24
160.65
131.05
98.84
68.35
45.94
37.81
47.05
71.02
102.2
130.85
149.06
153.74
147.29
135.28
123.16
113.59
105.86
97.89
88.18
77.15
66.75
59.14
55.36
55.29
58.14
62.49
66.75
68.57
64.86
52.75
30.94
0.69
-34.35
-69.14
-98.15
-117.27
-123.16
-113.95
-89.9
-53.91
-11.33
31.24
67.54
92.95
104.97
102.92
87.36
60.24
25.29
-11.59
-43.7
-65.61
-75.32
-74.86
-68.85
-62.12
-57.49
-55.41
-54.65
-53.87
-52.5
-50.77
-49.19
-47.94
-46.98
-46.28
-45.8
-45.77
-46.37
-47.51
-48.77
-49.71
-49.9
-49.33
-48.31
-47.36
-47.17
-48.54
-52.32
-58.83
-66.98
-73.79
-74.88
-66.19
-46.11
-16.99
15.34
43.78
62.95
71.21
70.79
65.89
60.33
55.86
52.21
48.33
43.7
38.94
35.31
33.66
33.76
34.47
34.4
32.46
28.63
23.82
19.34
16.33
15.18
15.51
16.31
16.52
15.46
13.15
10.18
7.39
5.53
4.82
5.03
5.6
5.89
5.52
4.48
3.09
1.77
0.89
0.57
0.71
1.03
1.28
1.26
0.98
0.56
0.17
-0.06
-0.08
0.08
0.34
0.64
0.92
1.18
1.44
1.73
2.05
2.41
2.81
3.24
3.71
4.21
4.75
5.33
5.96
6.64
7.36
8.12
8.93
9.79
10.68
11.63
12.62
13.67
14.77
15.93
17.16
18.44
19.77
21.12
22.46
23.72
24.81
25.58
25.92
25.82
25.0
23.27
20.56
16.84
12.19
6.75
0.75
-5.5
-11.96
-18.01
-23.37
-27.8
-31.19
-33.5
-34.75
-35.09
-34.66
-33.63
-32.18
-30.51
-28.74
-26.97
-25.26
-23.64
-22.13
-20.71
-19.35
-17.98
-16.61
-15.23
-13.89
-12.62
-11.5
-10.52
-9.67
-8.9
-8.12
-7.31
-6.46
-5.62
-4.87
-4.27
-3.85
-3.56
-3.3
-2.95
-2.45
-1.78
-1.05
-0.46
-0.14
-0.17
-0.43
-0.67
-0.6
-0.02
1.06
2.37
3.44
3.88
3.52
2.61
1.74
1.54
2.45
4.43
6.92
9.0
9.86
9.23
7.55
5.89
5.45
6.99
10.5
15.08
19.3
22.07
22.88
22.2
21.19
21.09
22.84
27.1
34.28
44.03
54.99
64.33
68.16
62.88
47.15
23.13
-3.94
-27.17
-41.64
-46.1
-42.92
-36.18
-29.27
-23.54
-18.44
-12.91
-6.81
-1.43
1.62
1.41
-1.48
-5.19
-7.7
-7.63
-5.3
-2.43
-1.39
-4.08
-11.14
-21.63
-33.44
-44.34
-52.61
-57.41
-59.69
-60.84
-62.36
-65.62
-71.62
-80.39
-90.39
-98.03
-98.76
-88.12
-64.6
-30.94
6.26
39.01
61.4
71.62
72.4
68.86
65.69
65.43
68.56
74.57
82.95
93.17
103.61
111.01
111.2
101.2
81.11
55.43
30.82
13.05
4.67
4.28
7.86
11.54
12.84
11.19
7.22
1.65
-5.38
-13.88
-23.65
-33.52
-41.88
-47.39
-49.2
-47.56
-43.49
-38.56
-34.22
-31.33
-29.82
-29.16
-28.77
-28.3
-27.93
-28.17
-29.91
-32.89
-37.57
-43.26
-48.73
-52.67
-54.16
-53.98
-51.94
-48.95
-46.09
-43.82
-41.67
-38.51
-33.07
-24.36
-12.43
1.88
17.41
31.34
41.86
48.59
52.18
53.87
54.58
54.27
52.42
47.66
38.81
25.51
8.31
-11.89
-33.94
-55.12
-72.85
-83.23
-82.71
-69.78
-46.04
-16.3
12.99
36.38
51.19
57.81
58.78
56.69
52.93
47.92
41.89
35.68
31.03
30.01
33.82
42.1
51.93
58.59
56.65
42.38
15.61
-19.44
-55.45
-85.21
-103.76
-110.38
-108.01
-101.04
-92.76
-83.99
-73.54
-59.96
-43.31
-25.07
-8.75
3.08
9.76
12.66
14.13
16.52
20.7
25.75
29.66
30.24
26.47
19.05
10.08
2.4
-1.91
-2.09
0.84
4.94
8.05
8.83
6.82
2.13
-4.5
-11.41
-15.73
-13.93
-2.99
17.75
45.52
74.61
98.38
111.84
113.53
105.58
91.93
76.22
60.26
43.8
27.0
10.28
-4.96
-16.89
-24.47
-28.17
-29.68
-31.07
-33.92
-38.34
-43.34
-47.26
-48.72
-47.33
-43.97
-40.34
-38.21
-38.64
-41.33
-44.86
-47.22
-46.66
-42.36
-34.74
-25.09
-14.69
-4.61
4.99
14.59
25.0
37.0
51.29
68.29
87.26
106.69
122.83
130.44
124.65
103.66
70.3
31.72
-3.21
-27.54
-38.94
-39.84
-35.38
-30.58
-28.35
-29.34
-33.18
-39.54
-47.92
-56.8
-63.11
-62.95
-53.69
-35.93
-13.76
6.5
19.0
21.18
14.47
2.76
-9.71
-20.25
-28.14
-33.79
-37.77
-39.94
-39.73
-36.85
-31.77
-25.64
-19.75
-15.17
-12.01
-9.6
-6.76
-2.29
4.35
12.74
21.58
29.14
33.95
35.45
34.19
31.74
30.02
30.4
33.22
37.46
41.14
42.19
39.85
34.67
28.48
23.41
20.88
21.26
23.91
27.85
32.16
36.11
38.17
35.55
24.98
4.28
-25.7
-60.87
-95.48
-124.89
-146.82
-162.21
-173.22
-180.45
-181.52
-171.48
-147.01
-109.86
-67.84
-30.14
-4.41
6.67
5.78
-1.14
-6.81
-7.63
-4.91
-3.86
-6.72
-12.65
-18.07
-18.65
-11.31
6.66
34.79
69.63
101.6
127.57
148.44
167.57
188.67
214.58
249.47
295.3
349.36
402.74
448.52
479.72
490.44
477.5
424.99
334.82
226.85
138.61
74.69
29.44
-6.71
-38.64
-68.78
-98.83
-128.1
-156.19
-182.27
-207.62
-229.7
-246.24
-255.9
-257.89
-252.81
-248.32
-243.88
-240.54
-242.24
-249.62
-261.8
-277.79
-289.47
-284.56
-257.3
-208.18
-145.76
-82.1
-25.19
21.42
57.55
84.78
104.04
115.95
122.41
123.74
120.19
112.71
102.0
88.18
70.89
48.78
20.35
-9.98
-39.06
-64.56
-84.74
-99.01
-107.98
-112.88
-115.73
-118.89
-123.78
-131.65
-141.87
-151.42
-155.27
-148.09
-126.7
-92.35
-51.07
-11.11
19.56
36.87
41.57
37.88
30.57
22.78
15.31
7.6
-0.63
-8.72
-14.9
-17.51
-15.56
-9.6
-1.0
8.73
18.78
29.4
41.26
54.98
69.41
83.8
96.72
106.54
112.13
113.14
110.38
105.18
98.96
92.79
87.36
82.57
77.95
73.03
67.52
61.64
55.76
50.18
45.05
40.53
36.45
32.56
29.63
26.93
24.32
21.8
19.45
17.33
15.59
14.26
13.3
12.6
12.01
11.3
10.19
8.47
6.16
3.67
1.49
0.12
-0.11
0.8
2.4
3.94
4.77
4.58
3.54
2.03
0.52
-2.03
-4.9
-7.92
-11.29
-14.0
-16.09
-16.98
-15.97
-12.53
-6.31
3.22
16.67
34.26
53.89
73.11
87.73
93.12
86.47
68.62
44.4
20.99
4.71
-0.57
5.34
19.42
36.43
50.98
58.49
56.0
43.14
20.97
-7.31
-36.84
-61.88
-76.78
-77.56
-63.65
-39.62
-11.95
7.4
9.64
-6.97
-36.77
-69.87
-97.0
-113.33
-122.28
-126.5
-128.84
-129.85
-128.27
-122.59
-112.63
-99.9
-83.48
-66.87
-51.69
-38.3
-25.58
-12.5
1.07
14.13
25.08
32.52
35.38
34.73
32.14
29.59
28.55
29.49
31.86
34.52
36.35
36.34
34.91
32.83
31.09
30.44
31.12
32.78
34.83
36.59
37.4
37.33
36.59
35.47
34.18
32.87
31.43
29.93
28.44
27.11
26.26
26.22
27.15
28.78
31.0
33.28
35.07
35.77
34.88
32.06
27.23
20.56
12.44
3.87
-4.81
-13.01
-20.18
-25.94
-30.13
-32.76
-33.95
-33.92
-32.97
-31.5
-29.72
-27.83
-25.92
-24.07
-22.33
-20.71
-19.2
-17.76
-16.43
-15.21
-14.39
-13.7
-13.1
-12.63
-12.25
-11.96
-11.74
-11.65
-11.68
-11.82
-12.01
-12.29
-12.64
-13.09
-13.56
-14.07
-14.66
-15.31
-16.03
-16.75
-17.53
-18.36
-19.3
-20.29
-21.37
-22.59
-23.91
-25.23
-26.31
-26.88
-26.62
-25.53
-22.8
-17.96
-10.83
-1.4
9.97
22.75
35.93
48.34
58.68
65.95
69.23
68.01
62.21
52.1
38.57
22.54
5.78
-10.94
-26.66
-40.71
-52.68
-62.47
-70.28
-76.17
-80.62
-84.02
-86.8
-89.02
-90.59
-91.23
-90.47
-88.88
-84.97
-77.96
-67.48
-53.51
-36.19
-16.02
6.22
30.04
53.52
75.56
94.93
110.58
121.74
128.04
129.3
125.63
117.47
104.77
88.16
68.07
45.02
19.8
-6.48
-32.52
-56.82
-77.85
-94.51
-105.52
-110.24
-108.56
-100.7
-87.16
-68.69
-46.25
-20.49
6.15
31.76
54.54
72.96
86.29
94.6
98.56
99.36
97.97
94.63
89.11
80.84
68.56
51.98
31.74
9.56
-12.28
-31.61
-47.06
-58.04
-64.77
-68.06
-68.89
-68.59
-68.6
-69.86
-72.13
-73.58
-71.28
-62.78
-47.93
-29.65
-13.3
-4.32
-6.14
-18.3
-36.9
-56.69
-73.41
-85.2
-92.15
-95.05
-94.41
-89.2
-78.55
-62.39
-42.0
-19.52
2.6
22.42
38.87
52.25
63.13
71.73
77.59
79.75
77.2
69.53
57.24
41.76
26.17
13.35
5.06
1.81
3.06
7.63
14.24
21.67
28.77
36.26
44.18
51.31
55.38
54.21
46.5
32.18
12.32
-11.11
-32.89
-48.71
-56.51
-56.1
-48.12
-32.88
-9.95
22.1
61.52
110.63
169.9
236.71
305.82
370.83
425.68
465.51
487.16
471.36
413.17
322.92
220.72
125.09
45.87
-15.16
-60.48
-93.86
-118.49
-133.16
-137.32
-132.25
-120.19
-103.53
-84.04
-63.74
-45.96
-35.58
-35.11
-46.16
-68.16
-95.74
-121.53
-138.77
-143.79
-137.17
-122.84
-104.15
-84.65
-66.13
-46.91
-26.17
-5.13
13.56
27.06
33.39
32.92
25.69
13.04
-0.57
-13.54
-25.0
-36.61
-50.78
-69.76
-94.92
-129.35
-174.89
-227.5
-283.09
-337.83
-385.98
-421.14
-438.89
-424.08
-373.8
-318.74
-273.11
-233.42
-197.58
-162.89
-127.13
-89.27
-49.25
-9.74
27.52
65.76
106.41
148.33
190.78
233.62
276.37
317.44
351.83
373.75
381.62
375.05
354.94
324.55
286.86
242.89
192.3
134.45
71.94
13.28
-32.27
-58.9
-64.41
-53.17
-35.92
-24.44
-25.62
-38.3
-55.23
-69.44
-77.92
-81.78
-84.44
-88.96
-96.21
-105.09
-113.93
-121.33
-127.13
-132.29
-138.02
-145.23
-153.73
-162.04
-167.9
-169.32
-165.32
-156.79
-143.83
-126.79
-106.03
-81.53
-52.84
-19.49
18.26
57.77
95.87
129.63
156.63
175.53
186.43
190.66
190.24
187.02
182.2
176.25
169.13
160.45
150.1
138.7
127.45
117.79
110.66
106.04
103.12
100.56
97.12
92.05
85.64
78.87
72.93
68.78
67.19
68.76
73.54
80.24
85.6
84.88
73.46
49.3
14.6
-24.28
-59.14
-83.3
-94.34
-94.45
-88.58
-81.63
-76.15
-72.07
-67.83
-62.2
-55.19
-48.11
-42.5
-39.2
-38.0
-37.81
-37.08
-34.65
-30.23
-24.47
-18.57
-13.98
-11.79
-12.52
-16.2
-22.92
-33.06
-46.78
-63.2
-79.6
-91.79
-95.23
-88.05
-71.93
-51.77
-33.7
-22.46
-19.48
-22.93
-29.35
-35.76
-40.96
-45.29
-49.58
-54.02
-57.87
-60.01
-59.61
-56.76
-52.23
-46.84
-41.04
-34.44
-26.09
-14.99
-0.8
15.95
33.91
51.11
65.58
75.98
81.87
83.65
82.28
78.74
73.71
67.49
59.91
50.71
39.8
27.38
13.95
0.26
-12.87
-24.64
-34.32
-41.29
-45.06
-45.3
-41.9
-34.96
-24.84
-12.22
1.09
14.29
26.59
37.26
45.68
51.37
54.24
54.62
53.11
50.55
47.82
45.63
44.21
43.34
42.48
41.1
38.94
35.94
33.33
30.9
28.81
26.96
25.07
22.71
19.69
16.23
12.61
9.25
6.42
4.52
4.18
6.43
12.28
20.33
28.63
32.5
26.71
8.21
-21.69
-57.75
-93.01
-121.45
-139.75
-146.74
-142.45
-126.75
-99.79
-63.5
-22.8
15.05
43.28
58.31
61.46
57.43
52.01
49.17
50.1
53.88
57.59
59.44
58.96
56.87
54.21
51.94
50.52
49.71
48.58
45.95
41.34
34.81
27.27
20.02
14.22
10.76
10.34
13.4
19.95
29.11
38.21
43.08
39.33
24.51
-0.63
-30.13
-56.61
-74.12
-80.43
-77.43
-69.43
-60.59
-53.1
-46.94
-41.03
-34.92
-29.22
-25.07
-23.27
-23.51
-24.52
-24.74
-22.92
-18.84
-13.44
-8.15
-4.19
-2.13
-1.61
-1.65
-1.14
0.69
3.9
7.79
11.3
13.46
13.66
12.1
9.33
6.07
2.99
0.49
-1.4
-2.85
-4.13
-5.45
-6.91
-8.5
-10.08
-11.46
-12.5
-13.13
-13.42
-13.57
-13.9
-14.73
-16.21
-18.3
-20.6
-22.56
-23.65
-23.54
-22.38
-20.76
-19.56
-19.44
-20.71
-23.12
-25.95
-28.44
-29.97
-30.44
-30.26
-30.25
-30.98
-33.08
-37.02
-42.83
-49.54
-54.88
-55.56
-48.52
-32.46
-8.69
18.52
43.56
61.76
71.29
73.44
71.48
68.91
67.69
68.96
72.9
79.44
88.38
99.42
112.12
126.21
142.04
157.04
170.58
182.53
192.56
199.45
201.36
196.51
183.89
163.58
135.78
102.22
65.61
29.29
-3.54
-30.32
-49.46
-60.59
-64.41
-64.15
-61.66
-56.71
-48.15
-35.77
-20.71
-4.68
10.72
24.49
32.2
31.74
24.76
14.32
2.02
-12.06
-27.95
-45.06
-61.93
-83.02
-110.12
-139.69
-166.99
-190.62
-212.19
-233.37
-254.14
-272.69
-294.79
-323.67
-355.81
-385.61
-410.64
-431.2
-447.71
-459.54
-415.6
-301.75
-152.36
-14.83
87.63
155.43
197.87
224.6
242.84
256.91
260.77
248.61
224.6
196.4
169.14
144.41
122.23
102.13
83.18
66.48
48.3
29.14
12.0
-1.24
-10.32
-15.32
-16.08
-12.67
-9.42
-10.66
-15.99
-22.83
-29.43
-35.61
-42.0
-49.01
-55.9
-61.97
-65.08
-60.36
-44.11
-17.0
15.64
46.38
69.12
81.38
84.02
79.9
72.99
65.96
59.49
53.2
47.03
41.83
38.7
38.09
38.86
39.3
37.86
33.93
28.34
22.84
19.17
18.18
19.39
21.1
21.53
19.62
15.74
11.51
9.06
9.96
14.37
20.99
27.66
32.62
34.97
35.36
35.39
36.53
39.66
45.05
52.33
60.69
68.28
71.45
65.46
46.56
15.07
-23.0
-57.53
-79.03
-83.51
-75.09
-64.0
-60.83
-71.14
-93.28
-120.55
-145.62
-164.11
-175.09
-178.88
-174.74
-160.71
-135.75
-102.08
-65.63
-33.96
-13.2
-5.36
-8.4
-17.81
-28.89
-38.8
-46.67
-53.05
-58.52
-63.73
-69.25
-75.59
-83.06
-91.64
-101.16
-111.15
-121.22
-130.51
-138.67
-145.7
-151.8
-157.09
-161.34
-163.75
-162.63
-160.28
-157.01
-152.97
-148.35
-143.48
-138.71
-134.32
-130.51
-127.35
-124.85
-122.36
-119.46
-115.9
-111.61
-106.63
-101.02
-94.91
-88.45
-81.95
-75.24
-68.39
-61.47
-54.46
-47.13
-39.09
-30.01
-19.82
-8.86
2.54
13.79
24.51
34.79
45.22
56.77
70.29
86.08
103.62
121.78
139.06
154.26
167.0
177.88
188.18
199.22
211.66
225.17
238.66
250.75
260.6
268.4
275.44
283.82
296.05
314.46
340.64
374.33
412.58
449.29
476.1
484.7
469.84
431.84
377.01
315.8
259.21
215.26
187.01
172.78
168.02
167.64
167.57
165.16
158.91
147.95
132.03
111.71
88.56
65.0
43.81
27.21
16.16
10.1
7.17
4.93
1.26
-5.04
-13.81
-23.83
-33.29
-40.67
-45.19
-47.15
-47.55
-47.59
-48.1
-49.19
-50.4
-51.08
-50.85
-49.83
-48.55
-47.67
-47.59
-48.39
-49.66
-50.87
-51.5
-51.32
-50.39
-49.0
-47.53
-46.32
-45.55
-45.24
-45.32
-45.66
-46.11
-46.55
-46.93
-47.24
-47.44
-47.53
-47.49
-47.32
-46.98
-46.46
-45.76
-44.89
-43.82
-42.47
-40.72
-38.42
-35.46
-31.83
-27.68
-23.33
-19.21
-15.72
-13.19
-11.78
-11.49
-12.18
-13.46
-14.82
-15.69
-15.58
-14.22
-11.76
-8.61
-5.29
-2.17
0.64
3.31
6.02
8.74
11.12
12.44
11.93
9.03
3.74
-3.28
-10.82
-17.51
-22.26
-24.66
-25.11
-24.51
-23.95
-24.15
-25.19
-26.68
-27.92
-28.34
-27.7
-26.07
-23.71
-20.86
-17.67
-14.17
-10.45
-6.74
-3.39
-0.84
0.63
0.99
0.49
-0.47
-1.47
-2.36
-3.17
-4.16
-5.57
-7.55
-10.06
-12.87
-15.71
-18.24
-20.15
-21.09
-20.79
-19.16
-16.41
-13.08
-9.95
-7.8
-7.13
-8.08
-10.37
-13.51
-16.91
-19.99
-22.18
-22.97
-21.99
-19.23
-15.13
-10.53
-6.44
-3.72
-2.7
-3.22
-4.71
-6.49
-8.04
-9.08
-9.59
-9.69
-9.56
-9.32
-9.07
-8.81
-8.53
-8.2
-7.82
-7.4
-7.02
-6.72
-6.6
-6.73
-7.25
-8.31
-10.01
-12.31
-15.02
-17.81
-20.26
-22.04
-23.01
-23.25
-23.0
-22.59
-22.22
-21.97
-21.69
-21.14
-20.01
-18.09
-15.36
-11.97
-8.29
-4.63
-1.32
1.51
3.87
5.8
7.32
8.32
8.7
8.32
7.28
5.82
4.34
3.14
2.39
2.03
1.87
1.69
1.32
0.66
-0.32
-1.66
-3.34
-5.31
-7.45
-9.59
-11.53
-13.14
-14.38
-15.28
-15.94
-16.45
-16.95
-17.51
-18.18
-18.94
-19.69
-20.29
-20.53
-20.26
-19.27
-17.44
-14.75
-11.29
-7.3
-3.12
0.88
4.44
7.4
9.74
11.54
12.87
13.74
14.12
13.99
13.4
12.47
11.31
10.05
8.74
7.32
5.79
4.15
2.47
0.92
-0.38
-1.37
-2.13
-2.8
-3.6
-4.69
-6.09
-7.68
-9.26
-10.63
-11.69
-12.44
-13.04
-13.67
-14.49
-15.56
-16.76
-17.84
-18.46
-18.3
-17.17
-15.09
-12.25
-8.95
-5.56
-2.35
0.51
2.9
4.78
6.15
7.02
7.47
7.62
7.59
7.54
7.54
7.65
7.83
8.02
8.09
7.97
7.64
7.08
6.34
5.42
4.33
3.07
1.64
0.04
-1.7
-3.46
-5.17
-6.76
-8.23
-9.65
-11.13
-12.81
-14.74
-16.85
-18.92
-20.57
-21.41
-21.14
-19.62
-16.94
-13.36
-9.23
-4.93
-0.78
2.97
6.15
8.66
10.48
11.65
12.22
12.29
11.99
11.48
10.85
10.16
9.4
8.5
7.41
6.17
4.88
3.7
2.73
1.98
1.32
0.57
-0.44
-1.71
-3.14
-4.55
-5.77
-6.75
-7.51
-8.18
-8.84
-9.63
-10.6
-11.77
-13.13
-14.58
-15.86
-16.63
-16.5
-15.23
-12.85
-9.62
-5.97
-2.32
1.02
3.93
6.38
8.41
10.0
11.1
11.64
11.65
11.25
10.63
9.98
9.44
9.03
8.68
8.29
7.77
7.1
6.36
5.68
5.14
4.71
4.31
3.74
2.82
1.53
-0.08
-1.84
-3.52
-5.0
-6.22
-7.25
-8.18
-9.14
-10.19
-11.43
-12.9
-14.52
-16.1
-17.3
-17.72
-17.03
-15.12
-12.2
-8.66
-4.95
-1.44
1.7
4.52
7.1
9.51
11.68
13.47
14.69
15.27
15.24
14.75
14.02
13.23
12.43
11.57
10.6
9.47
8.26
7.13
6.26
5.71
5.36
4.95
4.19
2.98
1.41
-0.24
-1.66
-2.67
-3.33
-3.81
-4.36
-5.15
-6.3
-7.82
-9.69
-11.75
-13.74
-15.28
-15.95
-15.43
-13.67
-10.85
-7.38
-3.68
-0.05
3.33
6.34
8.93
10.96
12.32
12.96
13.0
12.64
12.21
11.93
11.89
12.05
12.27
12.44
12.47
12.35
12.03
11.5
10.77
9.86
8.86
7.81
6.7
5.43
3.91
2.09
0.02
-2.1
-4.1
-5.85
-7.38
-8.8
-10.27
-11.89
-13.72
-15.66
-17.48
-18.85
-19.32
-18.49
-16.15
-12.38
-7.55
-2.21
3.08
7.92
12.15
15.73
18.68
20.89
22.22
22.54
21.85
20.32
18.36
16.38
14.76
13.64
12.95
12.53
12.17
11.81
11.41
11.07
10.81
10.62
10.42
10.04
9.35
8.24
6.69
4.82
2.8
0.82
-0.99
-2.66
-4.31
-6.07
-8.09
-10.39
-12.92
-15.57
-18.19
-20.57
-22.48
-23.6
-23.63
-22.4
-19.91
-16.39
-12.25
-7.9
-3.71
0.1
3.37
6.04
8.05
9.38
10.13
10.45
10.6
10.83
11.29
11.99
12.76
13.32
13.41
12.83
11.53
9.68
7.55
5.54
3.99
3.19
3.2
3.89
4.88
5.76
6.19
6.11
5.7
5.24
4.83
4.24
2.78
-0.4
-5.99
-14.13
-24.35
-35.58
-46.54
-56.01
-63.0
-66.88
-67.34
-64.4
-58.48
-50.37
-41.14
-31.83
-23.26
-15.89
-9.78
-4.75
-0.55
2.97
5.92
8.37
10.45
12.33
14.12
15.89
17.58
19.06
20.17
20.82
21.01
20.81
20.32
19.54
18.46
16.92
14.81
12.1
8.97
5.71
2.71
0.28
-1.37
-2.27
-2.54
-2.47
-2.31
-2.38
-2.89
-3.98
-5.56
-7.42
-9.17
-10.36
-10.64
-9.76
-7.6
-4.22
0.12
4.95
9.56
13.15
15.02
14.78
12.59
9.14
5.56
2.95
1.93
2.36
3.39
3.85
2.66
-0.53
-5.28
-10.48
-15.02
-18.24
-20.11
-21.07
-21.69
-22.81
-25.57
-31.38
-41.44
-56.01
-73.59
-90.5
-101.53
-101.72
-88.64
-63.0
-27.72
14.01
59.99
109.06
159.93
209.63
252.73
281.74
290.02
275.15
240.67
194.74
147.1
105.95
75.97
58.01
49.3
45.04
40.26
30.96
13.96
-12.92
-50.43
-96.16
-140.74
-171.83
-182.04
-172.75
-150.41
-121.88
-91.74
-62.28
-34.27
-7.98
15.47
34.51
47.77
56.17
61.07
63.53
63.87
61.59
55.71
44.62
28.08
7.14
-15.73
-37.73
-56.46
-70.46
-79.25
-83.2
-83.53
-81.51
-78.6
-75.49
-72.49
-69.63
-66.99
-64.62
-62.51
-60.76
-59.09
-57.8
-57.16
-57.54
-59.31
-62.74
-67.72
-73.6
-81.06
-87.83
-92.74
-95.56
-96.97
-97.91
-99.39
-102.0
-105.6
-109.39
-112.32
-114.11
-115.34
-117.31
-121.01
-127.29
-136.76
-149.87
-166.74
-186.36
-206.39
-222.68
-230.17
-223.99
-202.32
-167.41
-124.99
-81.97
-43.86
-13.31
10.32
26.69
38.02
47.04
56.65
69.22
86.38
108.55
134.48
161.01
183.98
201.58
213.13
220.09
225.2
232.03
244.02
262.79
286.35
308.32
321.44
316.81
288.32
234.54
160.97
79.48
4.89
-50.24
-79.72
-81.85
-61.92
-27.01
15.11
58.84
101.84
144.31
187.16
212.29
206.51
165.05
98.56
24.19
-43.77
-98.76
-141.25
-175.59
-207.2
-230.3
-247.01
-256.67
-259.38
-256.51
-250.23
-242.82
-236.03
-230.59
-222.82
-216.67
-210.57
-203.38
-195.05
-186.18
-177.58
-170.04
-164.29
-159.24
-154.45
-147.63
-137.98
-126.01
-112.88
-99.78
-87.58
-76.78
-66.59
-56.44
-44.4
-29.58
-12.18
6.79
26.01
44.26
60.82
75.92
90.11
104.9
121.3
139.45
158.8
178.37
197.37
215.44
232.86
250.23
268.75
289.54
313.52
341.14
371.84
403.53
432.31
453.08
460.94
453.16
430.33
396.28
356.72
317.1
280.92
249.08
220.71
194.43
169.6
146.57
126.11
108.47
92.97
78.27
63.23
47.87
33.5
22.2
15.71
14.29
16.48
19.57
20.82
18.53
12.65
4.43
-4.37
-12.25
-18.41
-22.68
-25.23
-26.23
-25.65
-23.21
-18.53
-11.19
-1.03
11.6
25.86
40.36
53.48
63.63
69.61
70.76
67.13
59.42
48.72
36.33
23.49
11.17
0.01
-9.6
-17.58
-24.01
-29.25
-33.89
-38.47
-43.29
-48.37
-53.58
-59.09
-65.46
-73.54
-83.99
-96.79
-110.96
-124.86
-136.83
-145.8
-151.55
-154.65
-155.99
-156.36
-156.24
-155.86
-155.3
-154.53
-153.22
-150.69
-146.03
-138.6
-128.66
-117.52
-107.44
-101.22
-101.66
-111.18
-131.29
-162.11
-201.76
-246.28
-290.06
-327.11
-352.74
-364.76
-363.85
-352.78
-334.9
-313.03
-288.81
-263.14
-236.69
-210.31
-184.76
-160.14
-135.45
-108.65
-77.36
-39.85
4.06
52.64
102.68
150.54
193.19
228.77
256.48
275.95
286.72
288.27
280.54
264.68
243.26
219.64
196.78
176.25
157.95
140.7
123.4
106.01
89.85
77.0
69.32
67.44
70.23
75.16
79.07
79.29
74.47
64.94
52.37
39.12
27.43
18.86
13.88
11.62
9.71
4.42
-8.74
-33.83
-72.75
-123.86
-181.49
-236.98
-281.11
-306.7
-310.48
-293.64
-260.81
-218.36
-172.68
-129.08
-91.18
-61.05
-39.05
-23.91
-13.04
-3.03
9.36
26.27
48.23
74.3
102.77
131.88
160.57
188.88
218.11
250.61
288.92
334.63
387.08
442.53
494.34
534.5
555.91
554.74
531.44
490.21
437.18
378.19
317.39
257.0
198.24
142.1
90.02
43.6
3.75
-29.73
-58.36
-84.33
-109.45
-134.32
-158.33
-180.03
-198.0
-211.56
-221.09
-227.8
-233.18
-238.2
-242.93
-246.63
-248.15
-246.38
-240.77
-231.38
-218.72
-203.45
-186.09
-167.03
-146.76
-125.96
-105.73
-87.44
-72.38
-61.36
-54.53
-51.27
-50.58
-51.31
-52.46
-53.31
-53.52
-52.94
-51.56
-49.42
-46.7
-43.66
-40.64
-37.9
-35.6
-33.79
-32.38
-31.22
-30.2
-29.21
-28.26
-27.39
-26.69
-26.29
-26.33
-26.91
-28.08
-29.77
-31.77
-33.91
-36.01
-38.1
-40.3
-42.73
-45.42
-48.21
-50.71
-52.35
-52.59
-51.06
-47.64
-42.3
-35.2
-26.51
-16.46
-5.37
6.25
17.75
28.43
37.69
45.17
50.78
54.65
57.0
58.07
57.96
56.79
54.68
51.85
48.54
45.02
41.53
38.18
35.01
31.95
28.93
25.94
23.01
20.19
17.48
14.87
12.38
10.05
8.01
6.41
5.4
5.01
5.17
5.69
6.37
7.07
7.71
8.34
9.02
9.78
10.54
11.22
11.71
12.0
12.14
12.18
12.12
11.89
11.37
10.5
9.4
8.34
7.58
7.24
7.2
7.21
7.0
6.44
5.62
4.73
3.97
3.41
3.0
2.64
2.27
1.94
1.7
1.56
1.44
1.18
0.62
-0.3
-1.56
-3.01
-4.56
-6.13
-7.69
-9.29
-10.95
-12.61
-14.22
-15.74
-17.2
-18.68
-20.24
-21.92
-23.72
-25.59
-27.46
-29.2
-30.6
-31.39
-31.22
-29.77
-26.83
-22.4
-16.66
-9.96
-2.73
4.51
11.29
17.14
21.68
24.69
26.1
26.03
24.76
22.65
20.08
17.37
14.82
12.6
10.88
9.71
9.07
8.82
8.73
8.59
8.26
7.69
6.9
5.99
5.06
4.18
3.49
3.12
3.28
4.14
5.71
7.83
10.2
12.44
14.28
15.58
16.34
16.65
16.58
16.19
15.47
14.51
13.48
12.58
11.95
11.61
11.44
11.31
11.13
10.91
10.84
11.03
11.56
12.27
12.89
13.06
12.48
11.03
8.79
5.99
2.92
-0.11
-2.94
-5.45
-7.64
-9.54
-11.25
-12.91
-14.63
-16.46
-18.29
-19.81
-20.6
-20.36
-18.98
-16.65
-13.79
-10.85
-8.14
-5.82
-3.83
-2.15
-0.77
0.25
0.85
1.05
1.0
0.93
1.07
1.52
2.22
3.0
3.65
4.07
4.27
4.43
4.72
5.29
6.09
6.9
7.42
7.45
6.95
6.14
5.35
4.9
4.95
5.44
6.16
6.84
7.26
7.26
6.77
5.71
4.08
1.98
-0.32
-2.42
-3.92
-4.52
-4.13
-2.94
-1.25
0.59
2.28
3.67
4.71
5.34
5.53
5.22
4.46
3.37
2.12
0.84
-0.4
-1.63
-2.95
-4.39
-5.93
-7.42
-8.71
-9.72
-10.51
-11.24
-12.1
-13.13
-14.32
-15.55
-16.66
-17.57
-18.29
-18.97
-19.83
-21.15
-23.09
-25.74
-28.96
-32.42
-35.58
-37.84
-38.68
-37.77
-35.04
-30.54
-24.48
-17.05
-8.56
0.61
9.96
18.87
26.77
33.16
37.81
40.69
41.99
42.05
41.18
39.69
37.79
35.69
33.49
31.36
29.42
27.75
26.39
25.18
24.0
22.74
21.33
19.74
18.0
16.16
14.29
12.45
10.68
9.02
7.46
5.98
4.58
3.25
1.99
0.73
-0.63
-2.27
-4.21
-6.37
-8.54
-10.47
-11.94
-12.87
-13.28
-13.17
-12.56
-11.47
-9.94
-8.19
-6.53
-5.25
-4.54
-4.39
-4.54
-4.68
-4.54
-4.06
-3.4
-2.8
-2.5
-2.55
-2.89
-3.32
-3.71
-4.0
-4.23
-4.44
-4.54
-4.38
-3.81
-2.8
-1.48
-0.07
1.22
2.32
3.25
4.11
4.92
5.61
6.07
6.23
6.12
5.91
5.82
5.99
6.5
7.22
7.97
8.58
8.96
9.18
9.38
9.71
10.24
10.93
11.63
12.19
12.54
12.69
12.77
12.96
13.31
13.78
14.18
14.26
13.88
13.01
11.77
10.34
8.82
7.21
5.39
3.33
1.14
-0.89
-2.41
-3.19
-3.23
-2.75
-2.1
-1.59
-1.31
-1.18
-0.95
-0.41
0.57
1.97
3.73
5.7
7.73
9.7
11.45
12.93
14.08
14.95
15.62
16.2
16.75
17.22
17.39
16.9
15.39
12.62
8.56
3.51
-2.03
-7.46
-12.22
-15.84
-18.03
-18.7
-17.92
-16.0
-13.34
-10.38
-7.5
-4.9
-2.67
-0.86
0.44
1.04
0.77
-0.43
-2.43
-4.9
-7.48
-9.85
-11.83
-13.38
-14.49
-15.16
-15.3
-14.89
-13.96
-12.62
-11.06
-9.43
-7.84
-6.3
-4.79
-3.3
-1.85
-0.46
0.84
2.0
2.97
3.7
4.1
4.19
3.95
3.44
2.63
1.51
0.03
-1.79
-3.87
-6.01
-7.97
-9.59
-10.76
-11.52
-11.95
-12.19
-12.36
-12.57
-12.9
-13.31
-13.66
-13.7
-13.19
-11.89
-9.78
-7.08
-4.17
-1.53
0.5
1.81
2.49
2.78
2.93
3.07
3.13
3.01
2.61
1.98
1.26
0.68
0.37
0.36
0.53
0.7
0.7
0.49
0.1
-0.38
-0.85
-1.28
-1.65
-1.98
-2.27
-2.53
-2.76
-2.95
-3.12
-3.31
-3.67
-4.3
-5.38
-6.96
-8.97
-11.19
-13.3
-14.94
-15.78
-15.7
-14.69
-12.91
-10.63
-8.18
-5.89
-4.02
-2.73
-2.01
-1.83
-2.02
-2.43
-2.94
-3.42
-3.82
-4.11
-4.29
-4.38
-4.41
-4.38
-4.29
-4.12
-3.89
-3.71
-3.7
-3.98
-4.58
-5.45
-6.42
-7.37
-8.18
-8.84
-9.45
-10.13
-10.98
-11.94
-12.84
-13.33
-13.13
-12.01
-9.89
-6.86
-3.15
0.96
5.18
9.25
12.99
16.29
19.12
21.48
23.38
24.83
25.84
26.42
26.58
26.36
25.8
24.98
23.97
22.84
21.72
20.69
19.81
19.1
18.5
17.9
17.27
16.62
15.98
15.42
14.99
14.66
14.43
14.23
14.0
13.67
13.19
12.45
11.39
9.94
8.13
6.02
3.71
1.27
-1.23
-3.67
-5.99
-8.1
-9.97
-11.62
-13.11
-14.5
-15.91
-17.43
-19.1
-20.94
-22.86
-24.76
-26.46
-27.79
-28.64
-28.99
-28.95
-28.79
-28.75
-29.02
-29.64
-30.46
-31.27
-31.86
-32.12
-32.02
-31.61
-30.94
-29.99
-28.75
-27.27
-25.68
-24.11
-22.66
-21.27
-19.75
-17.9
-15.57
-12.8
-9.77
-6.75
-3.99
-1.65
0.26
1.8
3.08
4.16
5.06
5.76
6.2
6.43
6.52
6.59
6.78
7.15
7.69
8.27
8.74
8.95
8.79
8.2
7.24
5.98
4.54
3.05
1.53
0.0
-1.56
-3.15
-4.74
-6.21
-7.46
-8.44
-9.11
-9.44
-9.4
-8.95
-8.04
-6.67
-4.92
-2.92
-0.82
1.29
3.32
5.2
6.89
8.31
9.43
10.25
10.8
11.16
11.39
11.54
11.66
11.75
11.85
11.94
12.01
11.97
11.77
11.4
10.9
10.39
9.88
9.39
8.78
7.89
6.59
4.87
2.81
0.56
-1.68
-3.8
-5.75
-7.49
-8.98
-10.19
-11.07
-11.62
-11.84
-11.77
-11.41
-10.75
-9.78
-8.49
-6.95
-5.26
-3.54
-1.95
-0.59
0.44
1.1
1.4
1.37
1.12
0.76
0.41
0.12
-0.11
-0.36
-0.72
-1.24
-1.94
-2.77
-3.67
-4.62
-5.58
-6.51
-7.44
-8.33
-9.15
-9.83
-10.33
-10.61
-10.72
-10.73
-10.76
-10.94
-11.41
-12.15
-13.04
-13.79
-14.05
-13.5
-11.94
-9.41
-6.17
-2.63
0.8
3.78
6.14
7.87
9.07
9.85
10.29
10.44
10.36
10.14
9.88
9.72
9.74
9.93
10.21
10.47
10.63
10.71
10.73
10.67
10.47
10.0
9.24
8.22
7.15
6.23
5.61
5.3
5.15
5.02
4.78
4.4
3.9
3.37
2.94
2.78
3.13
4.23
6.22
9.12
12.77
16.85
21.04
25.11
28.93
32.45
35.71
38.77
41.7
44.63
47.69
51.05
54.83
59.05
63.62
68.42
73.31
78.21
83.16
88.29
93.74
99.6
105.85
112.36
118.89
125.18
131.05
136.47
141.56
146.51
151.4
156.07
160.03
162.58
163.04
161.09
156.92
151.12
144.28
136.7
128.21
118.39
106.94
93.88
79.49
63.94
46.99
27.96
6.22
-18.24
-44.43
-70.61
-94.75
-115.35
-131.7
-143.79
-151.88
-156.14
-156.7
-153.85
-148.36
-141.48
-134.64
-128.95
-124.83
-121.89
-119.11
-115.26
-109.46
-101.38
-91.39
-80.43
-69.68
-60.27
-53.02
-48.19
-45.51
-44.28
-43.59
-42.62
-40.85
-38.06
-34.24
-29.55
-24.12
-18.21
-12.28
-7.09
-3.62
-2.69
-4.56
-8.73
-14.06
-19.21
-23.3
-26.26
-28.72
-31.64
-35.63
-40.69
-46.25
-51.62
-56.5
-61.06
-65.8
-71.03
-76.78
-82.89
-89.53
-97.55
-108.35
-123.21
-142.47
-165.02
-188.59
-210.62
-229.15
-243.24
-252.72
-257.41
-256.48
-248.34
-231.33
-204.68
-169.46
-128.74
-86.82
-48.35
-17.09
4.68
16.35
19.0
15.68
11.3
11.84
22.29
43.93
72.26
97.34
107.18
93.03
54.22
-0.47
-55.71
-95.52
-109.01
-93.25
-52.43
5.61
72.8
142.7
210.26
270.74
319.17
350.92
363.01
355.31
330.99
295.82
256.71
219.96
189.66
166.74
149.0
132.47
113.37
89.91
62.96
35.49
10.85
-8.9
-23.59
-34.59
-43.41
-50.51
-55.03
-55.41
-50.68
-41.54
-30.52
-21.18
-16.6
-18.06
-24.32
-32.02
-37.0
-35.93
-27.64
-13.5
3.26
18.87
30.46
37.19
40.38
42.64
46.63
53.65
63.14
72.69
78.75
77.82
67.71
48.49
22.73
-4.91
-28.59
-42.34
-41.43
-23.76
9.35
52.99
99.86
142.28
174.73
195.41
206.5
212.27
216.3
219.1
217.72
207.53
185.16
150.77
108.23
63.05
19.59
-20.91
-59.83
-99.17
-138.92
-175.81
-204.22
-219.24
-218.9
-205.16
-183.06
-158.57
-136.4
-119.19
-107.46
-100.45
-97.26
-96.65
-96.71
-95.09
-90.06
-81.58
-71.91
-64.15
-60.41
-61.47
-65.6
-69.42
-69.91
-66.05
-58.39
-48.68
-37.52
-23.84
-8.64
7.43
24.88
45.34
70.52
102.23
138.75
176.77
212.05
234.39
236.24
216.96
182.32
139.67
96.38
52.43
6.21
-42.81
-102.25
-175.86
-259.01
-340.93
-411.59
-462.09
-494.78
-513.72
-521.82
-532.87
-558.05
-598.69
-647.49
-696.03
-735.05
-768.21
-800.93
-759.78
-606.69
-358.86
-77.07
179.73
348.89
452.49
512.41
541.92
546.8
529.97
488.17
425.66
354.41
286.74
234.51
195.06
162.55
131.69
89.25
24.02
-65.66
-172.23
-283.76
-383.85
-463.6
-515.61
-534.84
-526.7
-501.62
-468.38
-431.65
-392.97
-349.79
-303.39
-255.38
-207.6
-164.8
-131.42
-107.86
-90.78
-75.58
-57.79
-37.22
-15.42
5.49
22.95
35.47
43.99
51.2
59.94
72.23
87.59
104.16
119.72
132.7
142.68
150.72
158.83
168.94
182.0
197.49
213.8
228.98
241.85
252.64
262.88
274.62
289.35
307.11
326.6
346.07
364.41
381.71
398.67
415.69
431.78
444.6
451.21
449.29
437.6
415.62
382.89
338.83
283.92
221.5
158.76
105.74
71.93
62.25
74.45
99.73
126.4
144.8
150.89
146.81
138.43
131.54
128.86
129.44
130.26
128.82
124.8
120.06
117.27
118.07
121.89
126.16
127.32
122.23
109.29
88.85
62.57
32.49
-0.18
-35.38
-73.72
-115.33
-158.83
-201.33
-239.55
-271.47
-297.02
-317.62
-334.15
-345.41
-347.92
-337.55
-311.72
-270.62
-217.09
-155.38
-90.28
-26.94
29.26
73.26
102.08
116.27
119.97
119.03
117.78
116.48
111.01
95.46
65.83
23.06
-26.76
-74.65
-111.92
-132.79
-135.3
-120.78
-92.54
-54.89
-12.24
30.9
69.91
100.38
118.8
123.35
114.48
95.01
69.21
41.78
17.03
-1.9
-13.02
-15.7
-10.52
0.87
15.97
31.73
45.28
54.56
58.76
58.38
54.74
49.34
43.2
36.67
29.51
21.28
11.7
1.01
-9.91
-19.46
-25.39
-25.03
-16.02
2.7
30.0
62.24
93.96
119.26
133.45
134.03
120.76
95.13
60.12
20.24
-18.21
-47.83
-62.04
-57.73
-37.3
-8.58
17.81
32.5
30.88
14.1
-12.59
-42.82
-71.58
-95.73
-113.09
-121.32
-118.07
-102.47
-76.98
-48.03
-24.51
-14.86
-24.08
-52.17
-94.37
-142.95
-189.63
-227.61
-252.73
-263.72
-261.84
-249.94
-231.43
-209.32
-185.65
-161.3
-136.23
-109.87
-81.34
-49.59
-13.62
26.98
71.4
117.28
160.98
198.56
227.08
245.43
254.49
256.59
254.62
251.03
247.19
243.14
237.75
229.06
214.79
193.15
163.52
127.05
86.73
46.85
11.92
-14.48
-30.49
-36.12
-32.85
-22.93
-8.82
6.94
21.84
33.5
40.09
40.74
35.79
26.64
15.14
3.04
-8.47
-18.69
-27.23
-33.73
-37.99
-40.15
-40.95
-41.67
-43.69
-48.04
-54.87
-63.42
-72.12
-79.02
-82.21
-80.24
-72.46
-59.18
-41.66
-21.76
-1.45
17.74
34.93
49.8
62.29
72.06
78.39
80.41
77.63
70.41
60.12
48.77
38.21
29.46
22.25
15.45
7.89
-0.81
-9.86
-17.74
-22.99
-24.99
-24.23
-21.87
-19.02
-16.16
-13.12
-9.52
-5.42
-1.61
0.65
0.34
-2.7
-7.5
-12.3
-15.3
-15.38
-12.54
-7.8
-2.8
0.71
1.33
-1.74
-8.66
-18.93
-31.46
-44.65
-56.55
-65.32
-69.74
-69.61
-65.85
-60.22
-54.61
-50.37
-47.76
-45.93
-43.4
-38.67
-30.93
-20.33
-7.88
5.05
17.23
27.89
36.71
43.62
48.59
51.53
52.35
51.18
48.62
45.75
43.93
44.39
47.77
53.93
61.92
70.25
77.26
81.38
81.35
76.28
65.82
50.19
30.28
7.53
-16.28
-39.34
-60.08
-77.17
-89.56
-96.54
-97.88
-94.1
-86.58
-77.34
-68.62
-62.3
-59.41
-59.96
-63.01
-67.01
-70.3
-71.62
-70.53
-67.49
-63.58
-60.08
-57.96
-57.63
-58.97
-61.62
-64.88
-67.69
-68.46
-65.4
-57.21
-43.88
-27.06
-9.69
5.08
15.08
19.82
20.28
18.0
14.16
9.06
2.45
-5.72
-14.56
-22.1
-25.8
-23.69
-15.21
-1.72
14.06
29.09
41.29
50.06
56.18
60.77
64.49
67.19
68.37
67.84
66.32
65.15
65.6
68.03
71.71
75.25
77.39
77.7
76.66
75.11
73.63
72.1
69.76
65.71
59.33
50.6
40.1
28.8
17.86
8.42
1.44
-2.5
-3.43
-2.07
0.34
2.38
2.99
1.82
-0.64
-3.28
-4.81
-4.24
-1.23
3.81
9.85
15.63
20.03
22.36
22.48
20.72
17.65
13.98
10.4
7.51
5.89
6.03
8.25
12.62
18.8
26.07
33.43
39.84
44.51
47.1
47.73
46.85
44.97
42.55
39.88
37.22
34.73
32.4
29.9
26.57
21.61
14.59
5.7
-4.17
-13.8
-22.11
-28.62
-33.44
-37.1
-40.16
-42.96
-45.58
-47.99
-50.25
-52.53
-55.06
-57.94
-61.07
-64.21
-67.02
-69.17
-70.45
-70.75
-70.01
-68.25
-65.52
-61.94
-57.81
-53.54
-49.64
-46.62
-44.88
-44.64
-45.9
-48.47
-52.02
-56.16
-60.54
-64.92
-69.3
-73.81
-78.7
-84.03
-89.64
-95.11
-99.9
-103.63
-106.14
-107.66
-108.65
-109.73
-111.43
-113.98
-117.08
-119.7
-120.18
-116.58
-107.27
-91.59
-70.34
-45.6
-20.22
3.14
22.87
38.79
52.08
64.54
77.83
92.74
109.06
125.88
142.03
156.62
169.08
179.11
186.3
190.12
190.06
186.02
178.54
168.84
158.51
148.94
140.98
134.84
130.27
126.96
124.79
123.87
124.23
125.62
127.25
128.04
127.04
123.93
119.3
114.53
111.14
110.12
111.3
113.3
113.85
110.59
101.77
86.73
66.02
41.26
14.72
-11.11
-33.99
-52.28
-65.1
-72.47
-75.16
-74.62
-72.78
-71.69
-73.17
-78.36
-87.36
-99.2
-112.12
-124.08
-133.21
-138.1
-137.8
-131.81
-120.18
-103.85
-84.77
-65.76
-49.59
-38.05
-31.23
-27.63
-25.04
-21.78
-17.54
-13.39
-11.02
-11.69
-15.61
-22.03
-29.69
-37.5
-44.7
-50.77
-55.22
-57.46
-57.09
-54.17
-49.46
-44.22
-39.83
-37.28
-36.91
-38.5
-41.44
-45.01
-48.56
-51.55
-53.47
-53.87
-52.34
-48.73
-43.25
-36.52
-29.44
-22.93
-17.64
-13.82
-11.44
-10.47
-11.04
-13.33
-17.18
-21.87
-26.28
-29.46
-31.29
-32.62
-34.68
-38.22
-42.71
-46.59
-48.15
-46.68
-42.91
-38.38
-34.25
-30.32
-25.08
-16.86
-5.21
8.43
21.22
30.33
34.32
33.73
30.57
27.12
24.93
24.38
25.0
26.18
27.65
29.56
32.16
35.4
38.63
40.76
40.61
37.33
30.68
21.05
9.28
-3.69
-17.08
-30.43
-43.55
-56.23
-68.15
-78.75
-87.38
-93.44
-96.52
-96.44
-93.24
-87.32
-79.56
-71.29
-64.14
-59.54
-58.26
-60.21
-64.67
-70.81
-78.22
-86.97
-97.28
-108.9
-120.73
-131.04
-138.05
-140.82
-139.71
-136.4
-133.3
-132.79
-136.45
-144.58
-156.12
-168.86
-179.99
-186.8
-187.22
-180.26
-166.06
-145.68
-120.71
-92.85
-63.53
-33.7
-3.79
25.91
54.81
81.49
103.77
119.27
126.37
125.1
117.29
105.91
93.81
82.83
73.43
65.41
58.8
54.53
54.23
59.33
70.1
85.12
101.75
116.92
128.23
134.53
136.08
134.27
131.12
128.75
128.88
132.38
138.95
147.12
154.56
158.83
158.24
152.46
142.65
130.92
119.5
109.9
102.37
95.94
88.93
79.82
68.12
54.73
41.68
31.33
25.38
24.08
26.28
29.92
32.82
33.42
31.03
25.76
18.27
9.49
0.58
-7.14
-12.27
-13.64
-10.71
-3.91
5.27
14.42
20.79
21.9
16.24
3.72
-14.43
-36.11
-59.09
-81.7
-103.01
-122.63
-140.29
-155.54
-167.67
-176.05
-180.36
-180.86
-178.32
-173.73
-167.89
-161.1
-152.95
-142.67
-129.46
-112.98
-93.5
-71.8
-48.81
-25.16
-1.12
23.27
47.69
71.32
92.87
111.04
125.29
136.12
145.02
153.65
162.92
172.29
179.93
183.49
181.1
172.24
157.73
139.24
118.59
97.22
76.15
56.05
37.29
19.76
2.89
-14.36
-32.92
-53.2
-74.77
-96.47
-117.02
-135.48
-151.41
-164.63
-174.78
-181.28
-183.55
-181.48
-175.6
-166.88
-156.2
-143.87
-129.51
-112.32
-91.69
-67.6
-40.77
-12.4
16.13
43.68
69.32
92.36
112.12
127.8
138.61
144.05
144.42
140.96
135.89
131.74
130.59
133.26
139.05
146.08
152.08
155.29
155.12
152.28
148.51
145.91
146.05
149.26
154.27
158.24
157.63
149.21
131.27
104.27
70.93
35.76
4.17
-18.38
-27.31
-19.69
4.73
43.06
89.41
136.33
177.05
207.66
228.24
241.98
252.87
262.81
269.84
268.51
252.4
217.58
165.15
101.64
36.96
-19.21
-60.9
-87.52
-103.1
-113.8
-124.88
-138.69
-154.32
-168.9
-179.43
-184.05
-182.52
-175.69
-164.63
-149.95
-131.77
-110.02
-85.02
-57.84
-30.26
-4.41
17.88
35.51
48.34
57.19
63.18
67.04
68.39
65.48
55.7
36.76
8.08
-28.17
-67.03
-101.82
-125.86
-134.15
-124.43
-97.38
-56.15
-5.97
46.41
93.23
126.74
140.79
132.5
103.21
58.05
4.28
-51.15
-103.52
-151.07
-194.16
-233.33
-267.68
-294.13
-308.5
-307.75
-291.94
-264.86
-232.62
-200.86
-171.99
-144.25
-112.92
-73.35
-24.01
32.33
89.69
141.76
184.68
218.27
245.0
267.7
287.37
302.43
309.66
306.19
291.21
266.56
235.87
202.95
170.36
138.8
107.58
75.61
42.35
8.06
-26.3
-59.65
-91.3
-121.14
-149.58
-177.17
-204.06
-229.73
-253.04
-272.61
-287.33
-296.67
-300.57
-299.14
-292.3
-279.89
-261.97
-239.25
-213.05
-185.02
-156.47
-127.98
-99.56
-71.28
-43.76
-18.26
3.83
21.73
35.62
46.33
54.5
59.83
61.37
58.47
51.73
43.16
35.3
29.9
27.16
26.02
25.2
24.22
23.44
23.28
23.29
22.15
18.3
11.03
1.05
-9.89
-19.85
-27.59
-32.87
-36.22
-38.53
-40.83
-44.21
-49.59
-57.37
-66.92
-76.52
-83.78
-86.59
-83.82
-75.7
-63.33
-48.07
-30.96
-12.68
6.29
25.34
43.59
60.06
73.97
85.2
94.42
102.82
111.52
121.09
131.14
140.55
147.91
152.11
152.71
150.11
145.36
139.71
134.26
129.61
125.8
122.54
119.44
116.37
113.57
111.48
110.59
111.11
112.88
115.45
118.25
120.85
123.17
125.51
128.31
131.85
135.85
139.41
141.24
140.11
135.5
127.97
119.1
110.9
104.93
101.55
99.62
96.91
90.83
79.35
61.58
37.95
9.96
-20.12
-49.53
-75.37
-94.97
-106.45
-109.27
-104.69
-95.6
-85.75
-78.52
-75.85
-77.76
-82.71
-88.59
-93.77
-97.68
-100.63
-103.27
-105.97
-108.56
-110.63
-111.89
-112.5
-112.84
-113.18
-113.33
-112.56
-110.07
-105.33
-98.41
-89.85
-80.28
-70.14
-59.54
-48.49
-37.15
-26.01
-15.83
-7.36
-0.98
3.43
6.61
9.71
14.0
20.63
30.19
42.47
56.27
69.53
79.94
85.74
86.44
83.06
77.79
73.05
70.44
70.12
70.93
71.15
69.41
65.44
60.04
54.61
50.22
47.04
44.11
39.88
32.91
22.66
9.79
-4.3
-18.2
-31.23
-43.55
-55.81
-68.45
-81.21
-93.14
-103.11
-110.49
-115.46
-118.91
-121.81
-124.82
-128.21
-132.28
-137.89
-146.66
-160.31
-179.38
-202.02
-223.72
-238.3
-240.16
-226.46
-198.49
-161.31
-121.72
-85.65
-56.34
-33.9
-16.39
-1.62
11.56
23.01
31.92
37.79
40.95
42.4
43.16
43.73
43.89
43.01
40.67
37.07
33.14
30.13
29.04
30.24
33.37
37.65
42.27
46.8
51.19
55.61
60.0
63.8
66.02
65.62
62.01
55.31
46.34
36.22
26.12
16.92
9.04
2.31
-4.09
-11.55
-21.37
-33.71
-46.57
-55.62
-55.24
-40.94
-11.54
29.55
75.1
116.43
146.22
160.32
157.97
140.87
111.88
74.64
33.84
-4.52
-33.74
-48.22
-45.68
-28.53
-3.32
21.42
38.16
42.72
34.84
17.5
-4.9
-28.13
-48.98
-65.34
-76.05
-80.76
-80.07
-75.74
-70.47
-67.33
-68.73
-75.35
-85.54
-95.52
-100.34
-95.58
-79.15
-52.21
-19.09
14.08
41.43
59.37
67.5
68.22
65.37
62.51
61.72
63.42
66.9
71.22
75.53
78.94
80.05
76.72
66.47
47.53
19.68
-15.44
-54.75
-95.01
-133.86
-170.26
-204.11
-235.18
-262.06
-281.95
-291.33
-287.15
-267.89
-234.02
-187.74
-132.57
-72.88
-13.47
40.72
85.28
117.24
135.75
142.28
140.13
133.09
124.27
115.38
106.7
97.76
88.11
77.79
67.22
56.95
47.21
37.89
28.72
19.66
11.14
4.26
0.74
2.65
12.16
30.84
59.35
97.22
142.75
193.11
244.13
290.12
323.83
337.8
326.44
288.7
229.46
158.87
89.45
32.08
-7.11
-27.85
-34.33
-32.75
-28.63
-25.2
-23.26
-21.75
-18.76
-12.21
-0.69
16.13
37.2
60.4
83.15
102.95
117.86
126.2
126.55
117.82
99.78
73.52
41.63
7.86
-23.84
-50.39
-70.56
-85.22
-96.93
-108.79
-123.16
-140.81
-160.76
-180.98
-199.2
-213.73
-223.75
-229.04
-229.55
-225.11
-215.61
-201.24
-182.9
-162.1
-140.52
-119.42
-99.42
-80.54
-62.47
-45.09
-28.6
-13.46
-0.21
10.79
19.37
25.62
29.9
32.79
35.02
37.39
40.55
44.86
50.26
56.34
62.55
68.41
73.59
77.95
81.39
83.74
84.68
83.86
81.15
76.84
71.73
66.76
62.45
58.55
53.95
47.25
37.55
25.09
11.42
-1.25
-10.79
-15.92
-16.4
-12.78
-5.82
3.91
16.05
30.05
44.73
58.3
68.64
74.05
73.79
68.25
58.71
46.68
33.44
19.82
6.23
-7.01
-19.53
-30.91
-40.78
-49.03
-55.82
-61.43
-66.12
-70.07
-73.4
-76.25
-78.79
-81.42
-84.67
-89.24
-95.68
-104.17
-114.18
-124.46
-133.26
-138.87
-140.14
-136.74
-129.09
-118.0
-104.29
-88.54
-71.11
-52.35
-32.78
-13.21
5.35
21.85
35.46
45.68
52.52
56.47
58.39
59.18
59.46
59.35
58.49
56.33
52.53
47.16
40.81
34.23
28.06
22.51
17.4
12.34
7.07
1.75
-3.01
-6.33
-7.39
-5.77
-1.73
3.82
9.63
14.55
17.84
19.36
19.39
18.3
16.33
13.52
9.97
6.09
2.67
0.68
0.71
2.6
5.33
7.42
7.64
5.66
2.3
-0.81
-1.94
0.02
5.17
12.72
21.51
30.58
39.4
47.75
55.43
61.97
66.51
68.11
66.0
59.76
49.27
34.71
16.51
-4.44
-26.63
-48.04
-66.49
-80.35
-89.1
-93.56
-95.53
-96.99
-99.21
-102.3
-105.24
-106.55
-104.99
-100.13
-92.4
-82.69
-71.86
-60.31
-47.99
-34.68
-20.37
-5.32
10.04
25.43
40.91
56.73
73.07
89.67
105.76
120.39
132.72
142.41
149.47
154.18
156.94
158.38
159.47
161.5
165.63
172.32
180.84
189.41
195.83
198.3
195.93
188.76
177.28
161.9
142.87
120.55
95.84
70.37
46.15
24.9
7.46
-6.4
-17.69
-27.47
-36.39
-44.39
-50.89
-55.26
-57.38
-57.85
-57.96
-59.22
-62.66
-68.35
-75.21
-81.43
-85.25
-85.86
-83.83
-81.01
-79.72
-81.69
-87.28
-95.28
-103.47
-109.57
-112.01
-110.32
-104.85
-96.26
-85.06
-71.59
-56.34
-40.32
-25.18
-12.83
-4.85
-1.93
-3.61
-8.47
-14.64
-20.33
-24.36
-26.26
-26.32
-25.17
-23.45
-21.52
-19.33
-16.64
-13.31
-9.5
-5.73
-2.67
-0.84
-0.28
-0.62
-1.21
-1.38
-0.84
0.17
0.95
0.49
-1.95
-6.55
-12.72
-19.33
-25.15
-29.49
-32.43
-34.8
-37.93
-43.17
-51.61
-63.72
-79.28
-97.21
-115.75
-132.62
-145.61
-153.1
-154.48
-150.25
-141.72
-130.53
-118.18
-105.69
-93.46
-81.3
-68.65
-54.79
-39.33
-22.37
-4.73
12.3
27.32
39.36
48.29
54.87
60.45
66.38
73.55
82.04
91.27
100.23
107.86
113.2
115.55
114.43
109.62
101.23
89.84
76.39
62.16
48.38
36.07
25.79
17.7
11.62
7.12
3.81
1.41
-0.05
-0.37
0.69
3.23
7.12
11.97
17.34
22.97
28.76
34.7
40.58
45.93
50.25
53.27
55.25
56.81
58.44
60.02
60.68
59.11
54.26
45.99
35.17
23.37
12.11
2.41
-5.46
-11.69
-16.6
-20.4
-23.17
-25.01
-26.1
-26.78
-27.39
-28.3
-29.69
-31.56
-33.75
-35.81
-37.21
-37.44
-36.2
-33.5
-29.67
-25.21
-20.55
-15.9
-11.22
-6.32
-1.09
4.38
9.77
14.7
18.91
22.53
26.01
29.96
34.93
41.04
47.99
55.1
61.58
66.8
70.45
72.54
73.31
73.03
71.92
70.11
67.65
64.53
60.7
56.07
50.51
43.94
36.37
27.91
18.83
9.42
0.02
-9.09
-17.58
-25.02
-30.89
-34.63
-35.79
-34.25
-30.38
-24.98
-19.12
-13.83
-9.83
-7.45
-6.55
-6.73
-7.49
-8.39
-9.15
-9.65
-9.91
-9.9
-9.55
-8.72
-7.25
-5.06
-2.23
1.08
4.66
8.35
12.0
15.35
18.01
19.47
19.14
16.56
11.5
4.04
-5.41
-16.08
-26.9
-36.66
-44.34
-49.36
-51.84
-52.5
-52.38
-52.41
-53.07
-54.31
-55.63
-56.42
-56.2
-54.78
-52.27
-48.98
-45.25
-41.46
-38.06
-35.59
-34.76
-36.31
-40.75
-48.21
-58.18
-69.74
-81.65
-92.6
-101.41
-107.11
-108.97
-106.58
-99.89
-89.38
-76.06
-61.32
-46.69
-33.43
-22.23
-12.98
-4.79
3.75
14.11
27.26
43.41
61.94
81.74
101.7
121.26
140.64
160.76
182.69
207.12
233.85
261.68
288.7
312.9
332.73
347.38
356.69
360.69
359.21
351.72
337.66
316.89
290.19
259.31
226.61
194.37
164.2
136.62
111.17
86.77
62.22
36.71
9.95
-17.95
-46.75
-76.38
-106.87
-137.95
-168.44
-195.93
-217.18
-229.26
-231.0
-223.79
-211.28
-197.92
-187.06
-179.59
-173.94
-167.15
-156.59
-140.97
-120.66
-96.99
-71.53
-45.79
-21.26
0.24
16.64
26.21
28.33
23.95
15.48
5.87
-2.54
-8.85
-13.78
-19.01
-26.1
-35.63
-46.78
-57.54
-65.25
-67.26
-61.63
-47.91
-27.84
-5.64
12.64
21.01
16.13
-0.86
-24.18
-45.79
-58.78
-60.52
-53.33
-42.74
-34.2
-30.32
-30.07
-30.28
-27.92
-22.05
-13.94
-5.85
0.64
5.58
10.37
16.62
24.81
33.78
41.06
43.96
40.8
31.67
18.42
3.87
-9.27
-19.39
-26.53
-31.96
-37.36
-43.69
-50.53
-56.28
-59.06
-57.82
-53.03
-46.46
-40.17
-35.29
-31.34
-26.51
-18.94
-8.03
4.78
16.43
23.58
24.11
18.25
8.46
-1.53
-8.28
-10.0
-7.15
-2.06
2.29
3.49
0.65
-5.57
-13.41
-20.47
-24.06
-21.24
-9.3
12.98
43.71
77.12
104.56
117.6
111.76
88.89
56.5
24.22
-0.65
-16.12
-25.22
-33.04
-42.94
-54.64
-64.74
-69.43
-66.97
-58.65
-47.85
-37.93
-30.62
-25.59
-21.16
-15.67
-8.42
-0.04
7.79
13.02
14.01
10.0
1.48
-9.93
-22.07
-33.04
-41.88
-48.75
-54.34
-59.08
-62.56
-63.8
-61.86
-56.68
-49.2
-40.8
-32.45
-24.15
-15.05
-4.22
8.64
22.83
36.94
49.41
58.94
64.56
65.57
61.5
52.45
39.47
24.64
10.65
-0.07
-6.3
-8.49
-8.51
-8.87
-11.78
-18.25
-27.87
-38.8
-48.01
-51.58
-45.19
-25.42
8.46
52.77
99.22
137.0
156.61
153.89
131.64
98.19
63.16
33.29
10.35
-7.7
-23.56
-37.78
-48.14
-51.56
-46.8
-36.03
-24.07
-15.9
-14.08
-17.76
-23.5
-27.4
-27.19
-23.06
-17.18
-12.35
-10.54
-12.19
-16.41
-21.82
-27.43
-33.12
-39.47
-47.12
-56.1
-65.45
-73.49
-78.25
-78.1
-72.1
-60.49
-44.65
-26.92
-9.97
4.01
13.9
19.75
22.43
22.98
22.25
20.82
19.37
18.78
20.03
23.59
28.88
34.27
37.69
37.66
33.92
27.49
19.96
12.7
6.38
1.08
-3.46
-7.45
-10.92
-13.85
-16.34
-18.68
-21.16
-23.89
-26.56
-28.37
-28.27
-25.33
-19.07
-9.65
2.08
14.9
27.52
38.87
48.24
55.23
59.59
61.07
59.35
54.25
46.09
35.98
25.85
17.96
14.0
14.29
17.39
20.47
20.41
15.05
4.07
-11.03
-27.66
-43.17
-55.73
-64.61
-69.89
-71.95
-71.06
-67.32
-60.89
-52.22
-42.3
-32.41
-23.87
-17.5
-13.42
-10.94
-8.89
-6.11
-1.86
3.87
10.51
17.13
22.9
27.4
30.59
32.74
34.13
34.77
34.4
32.61
29.11
23.98
17.75
11.29
5.53
1.13
-1.75
-3.51
-4.92
-6.87
-9.99
-14.4
-19.66
-24.83
-28.82
-30.71
-30.09
-27.2
-22.84
-18.1
-14.07
-11.54
-10.84
-11.88
-14.21
-17.12
-19.75
-21.33
-21.21
-19.09
-15.04
-9.44
-2.82
4.29
11.48
18.49
25.05
30.82
35.28
37.86
38.11
35.87
31.48
25.72
19.58
14.0
9.57
6.35
4.03
2.14
0.34
-1.39
-2.78
-3.46
-3.19
-2.01
-0.18
1.94
4.13
6.33
8.65
11.19
13.98
16.92
19.8
22.49
24.97
27.26
29.33
31.06
32.27
32.79
32.65
31.98
30.88
29.19
26.33
21.48
13.88
3.32
-9.65
-23.69
-37.06
-48.14
-55.8
-59.62
-59.76
-56.79
-51.38
-44.23
-35.98
-27.29
-18.84
-11.25
-5.02
-0.39
2.65
4.3
4.86
4.65
3.93
3.0
2.24
2.01
2.64
4.15
6.28
8.45
10.11
10.89
10.85
10.39
9.94
9.73
9.62
9.12
7.72
5.17
1.62
-2.42
-6.21
-9.2
-11.2
-12.46
-13.67
-15.66
-19.16
-24.58
-31.69
-39.55
-46.56
-50.82
-50.82
-46.32
-38.81
-31.31
-27.32
-29.35
-37.78
-50.65
-64.63
-76.4
-84.03
-87.31
-87.4
-85.88
-84.18
-83.27
-83.83
-86.44
-91.68
-100.08
-112.1
-128.1
-148.32
-172.59
-199.86
-227.77
-252.81
-270.97
-278.83
-274.61
-258.6
-232.83
-200.21
-163.59
-125.18
-86.42
-48.09
-10.6
26.08
62.28
98.51
135.09
171.48
206.06
236.36
259.93
275.24
282.22
282.05
276.44
266.87
254.34
239.52
223.28
206.88
191.91
179.67
170.79
164.96
161.28
158.64
156.17
153.34
149.79
145.08
138.67
130.01
118.77
105.06
89.56
73.31
57.45
42.91
30.2
19.39
10.35
2.8
-3.5
-8.75
-13.16
-16.89
-20.08
-22.83
-25.24
-27.43
-29.6
-31.97
-34.67
-37.61
-40.37
-42.32
-42.67
-40.8
-36.42
-29.63
-20.92
-11.16
-1.5
6.68
12.0
13.47
10.85
4.76
-3.38
-11.89
-19.42
-25.34
-29.71
-32.86
-34.88
-35.36
-33.57
-29.0
-21.71
-12.51
-2.59
6.99
15.58
22.84
28.45
31.8
32.08
28.74
21.91
12.53
1.92
-8.8
-19.04
-28.45
-36.21
-40.61
-39.28
-30.41
-13.95
8.11
32.49
56.04
76.87
94.51
109.13
120.9
129.61
135.0
137.34
137.5
136.58
135.18
133.01
129.08
122.53
113.09
101.13
87.36
72.47
57.07
41.85
27.69
15.43
5.78
-1.33
-6.87
-12.39
-19.56
-29.51
-42.54
-58.17
-75.35
-92.14
-106.87
-118.87
-128.6
-137.24
-145.84
-154.81
-163.82
-172.05
-177.23
-177.65
-173.04
-164.98
-156.22
-149.6
-147.07
-149.17
-154.53
-157.64
-152.24
-133.83
-101.36
-56.95
-4.28
52.95
111.6
168.94
225.32
280.45
332.52
378.45
415.73
443.86
463.99
477.22
466.94
422.84
346.92
255.77
170.74
105.9
64.35
41.42
30.31
23.73
21.2
24.21
32.85
43.82
51.46
50.0
36.81
11.9
-22.41
-59.73
-93.47
-118.82
-134.04
-140.16
-139.72
-135.96
-132.39
-132.12
-135.44
-141.13
-146.93
-150.35
-149.16
-141.84
-128.2
-109.92
-90.3
-72.46
-59.23
-52.62
-53.83
-63.34
-80.86
-105.12
-133.74
-163.03
-188.21
-205.04
-211.39
-208.28
-199.45
-189.65
-182.22
-177.45
-172.14
-160.99
-139.25
-105.37
-62.54
-18.19
18.36
39.08
40.05
22.53
-8.05
-44.55
-80.81
-113.25
-140.87
-164.06
-183.06
-196.96
-203.68
-200.54
-185.3
-157.03
-116.68
-67.26
-13.34
39.82
87.5
126.51
155.45
174.23
183.14
182.14
170.86
149.58
120.23
86.81
54.83
29.68
14.95
11.17
15.73
24.05
31.17
33.29
28.86
19.0
7.28
-0.95
0.73
18.02
53.71
105.78
166.39
223.08
262.29
273.99
255.76
213.85
160.81
110.28
71.78
47.67
33.79
22.95
9.12
-9.89
-32.27
-54.03
-71.34
-81.9
-85.12
-81.5
-72.0
-57.6
-39.6
-19.87
-0.85
14.68
24.08
25.11
16.64
-0.94
-25.55
-53.75
-81.93
-107.6
-130.27
-150.78
-169.71
-185.78
-195.52
-194.77
-181.01
-155.18
-121.58
-86.12
-53.63
-26.04
-2.36
19.72
41.83
63.67
83.22
97.96
106.08
106.99
101.14
89.5
73.46
54.88
36.34
20.91
11.33
8.85
12.38
18.59
23.0
21.76
13.31
-0.92
-17.03
-29.43
-32.37
-21.37
5.26
45.13
91.13
132.41
157.45
158.54
135.54
96.69
55.45
24.75
11.36
13.65
23.69
32.22
33.64
27.93
19.18
11.91
7.95
5.69
1.75
-6.26
-17.88
-29.74
-37.45
-37.99
-31.33
-20.52
-10.59
-6.26
-9.91
-20.63
-34.69
-47.41
-55.39
-58.12
-58.2
-59.9
-67.08
-81.36
-101.47
-123.81
-143.62
-156.04
-156.81
-142.94
-113.72
-71.8
-23.68
21.61
55.29
72.23
73.06
63.66
52.15
44.99
44.46
48.66
53.76
56.74
56.97
55.77
54.78
54.42
53.52
50.29
43.87
35.1
26.2
19.51
15.95
14.36
11.96
5.81
-5.59
-21.41
-38.85
-54.26
-64.6
-68.33
-65.52
-57.37
-45.68
-32.48
-19.74
-8.87
-0.18
7.41
15.93
27.16
41.17
55.59
66.17
68.62
60.64
43.22
20.37
-2.58
-20.88
-31.92
-35.44
-32.96
-26.67
-18.67
-10.69
-4.02
0.38
1.92
0.46
-3.43
-8.51
-13.19
-15.92
-15.91
-13.39
-9.66
-6.58
-5.85
-8.3
-13.51
-20.0
-25.8
-29.15
-29.1
-25.66
-19.68
-12.42
-5.31
0.21
2.91
1.95
-2.78
-10.48
-19.54
-27.99
-34.21
-37.29
-37.25
-34.72
-30.37
-24.59
-17.36
-8.46
2.04
13.47
24.61
33.84
39.68
41.26
38.5
32.21
23.71
14.48
5.74
-1.57
-6.7
-8.94
-7.69
-2.75
5.38
15.45
25.77
34.76
41.5
46.0
48.95
51.34
53.81
56.44
58.77
59.96
59.13
55.53
48.8
39.09
27.11
14.02
1.1
-10.75
-21.37
-31.25
-41.31
-52.23
-64.02
-75.89
-86.4
-93.85
-96.68
-93.82
-84.91
-70.56
-52.29
-32.28
-12.89
3.88
16.77
25.28
29.34
29.18
25.29
18.62
10.76
3.66
-0.85
-1.83
0.52
4.93
9.79
13.81
16.51
18.1
19.24
20.55
22.31
24.5
26.85
29.06
30.88
32.19
32.93
33.01
32.32
30.72
28.15
24.7
20.75
16.83
13.46
11.03
9.62
9.03
8.92
8.91
8.76
8.35
7.66
6.72
5.57
4.13
2.26
-0.27
-3.64
-7.86
-12.62
-17.34
-21.21
-23.53
-23.86
-22.23
-19.05
-14.97
-10.61
-6.38
-2.48
0.95
3.77
5.7
6.5
6.1
4.75
2.95
1.33
0.27
-0.27
-0.83
-2.24
-5.25
-10.17
-16.67
-23.74
-30.02
-34.15
-35.16
-32.69
-26.92
-18.57
-8.69
1.42
10.27
16.48
18.96
17.28
11.82
3.7
-5.51
-14.26
-21.42
-26.39
-29.09
-29.76
-28.73
-26.32
-22.7
-17.99
-12.25
-5.73
1.11
7.47
12.46
15.27
15.54
13.5
9.89
5.72
1.86
-1.15
-3.11
-4.02
-3.81
-2.32
0.71
5.34
11.37
18.24
25.21
31.54
36.67
40.3
42.35
42.86
41.83
39.3
35.41
30.59
25.57
21.28
18.42
17.15
16.81
16.08
13.5
8.06
-0.4
-11.11
-22.8
-34.13
-44.06
-51.91
-57.23
-59.63
-58.92
-55.18
-49.04
-41.59
-34.0
-27.21
-21.47
-16.42
-11.29
-5.34
1.8
10.1
19.16
28.5
37.73
46.58
54.84
62.26
68.41
72.72
74.55
73.48
69.52
63.33
56.11
49.34
44.19
40.95
38.84
36.31
31.71
24.21
14.32
3.73
-5.43
-11.61
-14.46
-15.01
-14.91
-15.72
-18.28
-22.74
-28.87
-36.25
-44.26
-52.02
-58.63
-63.61
-67.43
-71.34
-76.66
-83.68
-90.89
-95.35
-93.85
-84.48
-67.55
-45.45
-21.54
1.06
20.14
34.42
43.1
45.67
42.2
33.9
23.24
13.6
8.26
9.16
16.04
26.5
36.85
43.54
44.45
39.47
30.47
20.76
14.36
15.37
26.97
50.28
83.04
119.06
149.41
165.15
160.84
136.86
99.23
56.86
17.84
-13.35
-36.26
-52.72
-64.5
-71.86
-73.95
-70.28
-62.01
-51.94
-43.26
-38.04
-36.28
-36.3
-35.96
-33.86
-29.98
-25.35
-21.44
-19.38
-19.66
-22.09
-26.02
-30.56
-34.67
-37.46
-38.47
-38.07
-37.38
-38.02
-41.22
-46.91
-53.32
-57.77
-58.15
-54.3
-48.38
-43.62
-42.67
-46.05
-52.07
-57.92
-61.09
-60.22
-54.93
-45.02
-29.88
-8.98
17.18
46.16
73.63
94.78
106.03
106.51
98.17
84.79
70.49
58.53
50.64
47.0
46.72
48.36
50.32
51.18
50.0
46.77
42.47
38.97
38.23
41.54
48.75
58.21
67.23
73.06
73.69
68.38
57.48
42.13
23.89
4.38
-14.74
-31.98
-46.1
-56.26
-62.12
-63.76
-61.54
-56.09
-48.23
-39.02
-29.59
-21.04
-14.1
-9.15
-6.14
-4.77
-4.62
-5.31
-6.54
-8.08
-9.77
-11.46
-13.02
-14.37
-15.55
-16.67
-17.87
-19.14
-20.29
-20.94
-20.64
-19.14
-16.51
-13.14
-9.5
-5.95
-2.61
0.57
3.5
5.91
7.24
7.06
5.23
2.14
-1.48
-4.84
-7.4
-9.02
-9.82
-9.97
-9.5
-8.24
-5.94
-2.48
1.93
6.79
11.33
14.78
16.59
16.6
15.14
12.88
10.73
9.42
9.37
10.54
12.47
14.47
15.84
16.09
14.98
12.54
8.92
4.32
-1.09
-7.17
-13.73
-20.51
-27.18
-33.36
-38.61
-42.44
-44.32
-43.76
-40.37
-34.02
-24.9
-13.59
-0.94
11.99
24.18
34.76
43.18
49.29
53.29
55.59
56.66
56.71
55.7
53.31
49.17
43.06
35.08
25.59
15.08
3.99
-7.36
-18.71
-29.64
-39.56
-47.68
-53.3
-56.1
-56.3
-54.66
-52.17
-49.69
-47.67
-46.08
-44.59
-42.77
-40.28
-36.92
-32.56
-27.04
-20.29
-12.36
-3.63
5.21
13.24
19.67
24.04
26.38
27.15
27.04
26.71
26.57
26.71
26.94
27.0
26.69
25.96
24.92
23.8
22.77
21.93
21.25
20.54
19.6
18.2
16.14
13.34
9.74
5.43
0.53
-4.72
-10.03
-15.11
-19.74
-23.81
-27.29
-30.23
-32.54
-33.97
-34.1
-32.49
-28.91
-23.51
-16.86
-9.77
-3.1
2.52
6.77
9.63
11.31
12.07
12.19
11.94
11.5
10.98
10.39
9.66
8.75
7.69
6.58
5.52
4.54
3.49
2.14
0.26
-2.18
-4.98
-7.72
-10.01
-11.6
-12.53
-13.08
-13.69
-14.71
-16.25
-18.09
-19.65
-20.22
-19.11
-15.86
-10.42
-3.13
5.31
14.12
22.45
29.66
35.31
39.31
41.88
43.47
44.55
45.39
45.83
45.38
43.45
39.73
34.41
28.11
21.53
15.13
8.84
2.25
-5.12
-13.35
-22.04
-30.4
-37.58
-42.9
-45.91
-46.24
-43.52
-37.46
-28.15
-16.42
-3.89
7.51
16.16
21.51
24.22
25.81
27.84
31.05
35.01
38.29
39.22
36.61
30.21
20.69
9.27
-2.72
-14.07
-23.81
-31.19
-35.59
-36.65
-34.31
-29.02
-21.72
-13.71
-6.48
-1.34
0.82
-0.16
-3.75
-8.88
-14.46
-19.79
-24.94
-30.63
-37.84
-47.27
-58.82
-71.4
-83.18
-92.15
-96.73
-96.3
-91.42
-83.59
-74.75
-66.58
-59.89
-54.37
-48.7
-41.16
-30.38
-16.07
0.75
18.04
33.39
44.91
51.75
54.08
52.81
49.01
43.46
36.7
29.14
21.34
14.11
8.55
5.87
7.2
13.23
23.8
37.62
52.32
64.99
73.08
75.29
71.94
64.75
55.97
47.66
41.22
37.5
37.05
40.3
47.34
57.4
68.69
78.61
84.53
84.67
78.69
67.61
53.22
37.18
20.41
2.94
-15.76
-36.1
-57.87
-79.77
-99.56
-114.35
-121.33
-118.33
-104.64
-81.37
-51.63
-20.0
8.34
28.91
39.0
38.19
28.2
12.09
-6.67
-24.96
-40.4
-51.26
-56.37
-55.0
-46.89
-32.41
-12.77
10.0
33.29
54.26
70.51
80.55
84.18
82.47
77.25
70.51
63.71
57.61
52.23
47.34
42.7
38.22
33.85
29.39
24.53
18.87
12.25
4.8
-3.0
-10.64
-17.78
-24.43
-30.91
-37.51
-44.32
-50.95
-56.77
-61.06
-63.44
-64.09
-63.73
-63.39
-64.0
-66.04
-69.27
-72.75
-75.13
-75.07
-71.68
-64.83
-55.22
-44.13
-33.12
-23.56
-16.37
-11.84
-9.65
-9.07
-9.22
-9.35
-9.03
-8.22
-7.16
-6.18
-5.45
-4.92
-4.32
-3.28
-1.46
1.38
5.37
10.52
16.73
23.69
30.9
37.61
43.12
46.97
49.18
50.3
51.12
52.42
54.58
57.43
60.32
62.36
62.71
60.81
56.52
50.04
41.84
32.5
22.63
12.71
3.07
-6.07
-14.52
-21.97
-27.91
-31.79
-33.18
-32.11
-29.13
-25.2
-21.34
-18.38
-16.75
-16.52
-17.5
-19.32
-21.44
-23.08
-23.34
-21.48
-17.27
-11.25
-4.62
1.16
4.92
6.2
5.24
2.83
-0.17
-3.08
-5.46
-7.11
-7.84
-7.52
-6.04
-3.48
-0.17
3.38
6.58
8.99
10.36
10.78
10.53
10.0
9.53
9.24
9.03
8.56
7.34
4.98
1.39
-3.1
-7.72
-11.42
-13.24
-12.58
-9.33
-3.98
2.66
9.64
16.14
21.59
25.7
28.34
29.5
29.25
27.7
25.08
21.76
18.23
14.91
12.15
10.03
8.43
7.09
5.78
4.38
2.91
1.47
0.1
-1.23
-2.65
-4.3
-6.23
-8.4
-10.68
-12.91
-15.0
-17.03
-19.11
-21.43
-24.08
-26.92
-29.59
-31.47
-31.85
-30.14
-26.16
-20.15
-12.83
-5.09
2.19
8.45
13.41
17.03
19.43
20.7
21.01
20.59
19.76
18.92
18.38
18.2
18.16
17.81
16.71
14.66
11.85
8.9
6.58
5.51
5.89
7.33
8.97
9.76
8.79
5.54
-0.01
-7.4
-15.88
-24.48
-32.27
-38.39
-42.22
-43.49
-42.23
-38.77
-33.57
-27.21
-20.2
-12.97
-5.95
0.58
6.33
11.14
14.93
17.79
19.9
21.5
22.84
24.06
25.27
26.47
27.6
28.52
29.02
28.81
27.62
25.26
21.69
17.09
11.76
6.06
0.2
-5.72
-11.7
-17.81
-23.99
-30.08
-35.66
-40.17
-42.89
-43.16
-40.55
-35.07
-27.25
-17.99
-8.33
0.82
8.83
15.43
20.61
24.46
27.11
28.67
29.31
29.19
28.44
27.12
25.22
22.66
19.42
15.59
11.38
7.02
2.65
-1.68
-6.08
-10.73
-15.7
-20.96
-26.27
-31.31
-35.76
-39.39
-42.13
-44.05
-45.35
-46.33
-47.17
-47.91
-48.19
-47.31
-44.37
-38.71
-30.27
-19.76
-8.5
2.02
10.65
16.84
20.67
22.62
23.25
23.18
23.09
23.79
26.1
30.57
37.12
44.94
52.58
58.28
60.51
58.31
51.51
40.75
27.26
12.55
-2.01
-15.52
-27.74
-38.96
-49.58
-59.72
-68.95
-76.39
-81.08
-82.48
-80.7
-76.49
-70.92
-65.04
-59.37
-53.48
-45.61
-32.77
-11.57
20.31
62.51
111.37
160.64
203.35
234.06
250.25
252.32
242.61
224.33
200.85
175.56
151.57
130.93
113.61
97.08
77.37
51.12
17.64
-20.43
-58.35
-91.42
-116.92
-134.35
-144.48
-147.9
-144.38
-133.51
-115.96
-94.41
-73.15
-56.62
-47.61
-46.19
-49.81
-54.6
-57.02
-55.21
-49.43
-41.7
-34.65
-30.35
-29.62
-31.89
-35.75
-39.63
-42.54
-44.32
-45.47
-46.66
-48.18
-49.57
-49.67
-47.03
-40.56
-30.06
-16.47
-1.52
12.89
25.53
36.21
45.58
54.48
63.14
70.89
76.41
78.49
76.81
72.35
66.97
62.66
60.56
60.51
61.21
60.95
58.46
53.43
46.51
38.87
31.61
25.32
19.93
14.87
9.31
2.56
-5.76
-15.41
-25.46
-34.28
-39.83
-40.23
-34.34
-22.39
-6.12
11.4
26.6
36.43
39.29
35.5
26.98
16.33
5.54
-4.72
-15.17
-27.0
-40.72
-55.22
-67.82
-75.15
-74.52
-65.16
-48.5
-27.8
-6.93
10.82
23.54
30.91
33.77
33.54
31.57
28.88
26.24
24.39
24.24
26.75
32.43
40.78
50.06
57.55
60.4
56.74
46.52
31.79
16.14
3.76
-1.85
1.12
12.19
28.43
44.86
55.38
54.3
38.09
6.83
-35.34
-81.05
-121.76
-150.41
-163.48
-161.95
-150.51
-135.57
-122.61
-114.27
-109.6
-105.09
-96.73
-82.19
-62.14
-39.85
-19.76
-5.37
2.0
3.42
1.42
-1.47
-3.46
-3.73
-1.85
2.65
10.46
22.03
37.03
53.98
70.29
82.92
89.41
88.74
81.88
71.58
61.55
55.27
55.04
61.51
73.85
90.27
108.28
124.76
135.69
136.58
123.73
96.25
57.39
14.46
-23.62
-49.79
-61.7
-62.32
-57.9
-54.35
-54.23
-56.03
-55.75
-49.79
-37.28
-20.33
-2.74
12.21
23.12
30.56
36.03
40.68
44.63
47.08
46.97
43.77
37.88
30.39
22.46
14.68
6.77
-2.27
-13.67
-28.02
-44.77
-62.19
-78.02
-90.51
-99.27
-105.31
-110.44
-116.25
-123.18
-130.44
-136.42
-139.41
-138.01
-131.15
-117.89
-97.42
-69.47
-34.82
4.23
44.06
80.43
109.5
128.57
136.41
133.18
120.32
100.42
76.79
53.01
32.19
16.27
5.43
-1.82
-7.97
-15.41
-25.22
-36.41
-45.78
-48.65
-40.08
-16.67
21.81
71.43
124.17
169.45
196.77
199.0
174.97
130.28
75.69
23.68
-15.66
-37.52
-43.05
-37.63
-27.97
-19.27
-13.94
-11.82
-11.44
-11.34
-10.55
-8.57
-4.82
1.44
10.92
23.5
37.83
51.47
61.43
65.0
60.5
47.61
27.12
0.59
-30.13
-63.1
-96.49
-128.8
-159.06
-186.77
-211.53
-232.5
-248.08
-256.22
-255.15
-244.32
-224.69
-198.23
-166.75
-131.02
-90.8
-45.93
2.28
50.23
92.65
124.3
142.01
145.84
138.81
125.49
110.19
95.79
83.49
73.4
65.45
59.92
57.45
58.64
63.52
71.16
79.57
86.03
87.84
83.33
72.98
60.12
50.5
50.58
64.87
93.28
130.15
165.4
187.64
187.93
162.54
114.11
50.89
-15.15
-71.14
-106.49
-115.78
-100.67
-69.65
-35.35
-10.02
-0.96
-8.15
-25.16
-42.88
-53.91
-55.37
-48.86
-38.16
-26.5
-15.13
-4.0
6.74
15.45
19.19
15.36
3.47
-14.27
-33.95
-52.35
-69.0
-86.57
-109.28
-140.17
-178.45
-218.73
-252.42
-270.58
-266.93
-239.79
-192.19
-130.6
-62.87
3.61
63.07
111.69
147.31
168.91
176.18
169.55
150.41
121.51
87.24
53.11
24.86
6.95
1.08
5.42
14.98
23.09
23.75
14.04
-4.37
-25.08
-38.54
-34.8
-7.26
44.28
112.44
183.53
241.3
271.81
267.94
231.73
174.15
111.82
61.84
36.35
38.4
61.12
90.23
109.47
106.97
79.94
35.54
-12.51
-49.99
-68.22
-66.84
-52.51
-34.35
-19.37
-9.96
-4.79
-1.83
-1.11
-5.82
-20.36
-47.42
-85.57
-129.12
-170.48
-203.5
-225.92
-239.53
-248.46
-256.54
-265.35
-273.76
-278.81
-277.17
-266.36
-245.38
-214.52
-174.88
-127.96
-75.48
-19.64
36.63
89.59
135.04
169.08
188.99
193.95
185.4
166.78
142.82
118.52
98.18
84.78
79.47
81.42
88.01
95.33
99.23
96.43
85.6
67.99
47.58
30.51
23.81
33.21
60.64
102.44
149.38
188.83
208.6
201.02
165.61
109.38
44.65
-14.94
-58.45
-80.62
-82.59
-70.69
-53.61
-39.42
-33.15
-35.8
-44.94
-56.16
-64.99
-68.12
-64.02
-52.79
-35.79
-15.35
5.56
23.7
36.18
40.93
37.21
25.7
8.24
-12.78
-35.15
-57.39
-79.13
-100.74
-122.81
-145.41
-167.53
-187.1
-201.36
-207.86
-205.59
-195.86
-182.21
-169.18
-160.19
-155.5
-151.47
-141.71
-119.69
-81.73
-29.04
32.31
93.27
144.87
180.77
198.69
200.23
189.63
172.23
153.14
136.56
125.44
121.33
124.46
133.6
146.16
158.35
165.91
165.0
153.32
130.86
100.24
66.42
35.85
14.91
8.06
16.24
36.0
60.16
79.59
85.8
73.52
42.31
-3.01
-53.48
-98.45
-128.67
-139.12
-130.55
-109.0
-83.4
-62.22
-50.49
-48.59
-53.17
-59.49
-63.78
-64.46
-61.76
-56.62
-49.56
-40.53
-29.4
-16.72
-4.09
6.18
11.86
11.66
5.7
-4.59
-17.03
-29.43
-40.28
-48.86
-55.08
-58.98
-60.23
-58.1
-51.75
-40.97
-26.7
-11.1
2.93
12.84
17.42
17.28
14.67
12.58
13.58
18.89
28.08
39.31
50.25
58.91
64.3
66.55
66.56
65.4
63.82
62.02
59.82
56.82
52.72
47.45
41.15
34.08
26.61
19.12
12.05
5.87
0.99
-2.36
-4.21
-4.9
-5.02
-5.29
-6.3
-8.36
-11.33
-14.77
-18.1
-20.85
-22.81
-24.09
-25.09
-26.25
-27.99
-30.53
-33.82
-37.51
-40.95
-43.34
-43.9
-42.04
-37.68
-31.19
-23.38
-15.22
-7.54
-0.81
4.8
9.37
12.99
15.69
17.39
18.05
17.79
16.89
15.73
14.62
13.76
13.13
12.63
12.18
11.74
11.39
11.13
10.93
10.6
9.84
8.32
5.72
1.87
-3.23
-9.36
-16.18
-23.29
-30.39
-37.23
-43.57
-49.08
-53.19
-55.18
-54.32
-50.14
-42.69
-32.61
-20.99
-9.13
1.91
11.54
19.7
26.7
32.93
38.6
43.55
47.29
49.25
48.95
46.23
41.24
34.44
26.39
17.75
9.22
1.61
-4.21
-7.49
-7.82
-5.46
-1.48
2.37
4.17
2.46
-3.12
-11.69
-21.35
-29.94
-35.82
-38.48
-38.62
-37.68
-37.06
-37.41
-38.27
-38.37
-36.23
-30.88
-22.41
-11.96
-1.26
7.9
14.37
17.98
19.42
19.99
21.03
23.46
27.46
32.44
37.22
40.41
40.93
38.43
33.83
29.6
29.6
38.09
57.97
88.83
125.93
160.73
183.26
185.37
163.56
120.25
62.86
1.27
-55.16
-99.9
-130.15
-146.26
-150.52
-145.83
-134.84
-119.69
-102.3
-84.62
-68.73
-56.45
-48.74
-45.28
-44.41
-43.92
-41.91
-37.45
-30.53
-21.43
-10.22
3.21
18.52
34.12
47.03
53.93
52.85
44.61
32.95
22.97
18.78
21.6
29.32
37.93
43.59
44.41
40.67
33.85
25.3
15.45
4.09
-8.66
-21.53
-32.09
-37.55
-36.05
-27.52
-13.79
2.09
17.0
28.66
36.06
39.21
38.59
34.56
27.12
16.11
1.68
-15.22
-32.69
-48.15
-59.15
-64.08
-62.75
-56.32
-46.8
-36.28
-26.35
-17.9
-11.23
-6.35
-3.2
-1.76
-1.86
-3.16
-5.19
-7.44
-9.59
-11.39
-12.58
-12.52
-10.21
-4.5
5.28
18.79
34.43
49.52
61.17
67.16
66.8
61.03
52.03
42.28
33.66
26.94
21.87
17.66
13.52
8.94
3.64
-2.77
-10.84
-21.17
-33.95
-48.57
-63.58
-77.09
-87.3
-92.99
-93.42
-88.0
-76.13
-57.32
-32.02
-2.31
27.87
53.49
69.97
74.66
67.78
52.13
32.02
11.8
-5.17
-16.98
-22.97
-23.33
-18.75
-10.24
0.96
13.49
26.05
37.55
47.32
55.15
61.2
65.82
69.37
71.99
73.56
73.84
72.68
70.34
67.51
65.18
64.21
64.79
66.14
66.5
63.54
55.11
40.16
19.47
-4.11
-25.98
-41.09
-45.53
-38.23
-21.79
-2.12
13.44
18.55
9.98
-11.54
-42.23
-77.16
-112.07
-144.37
-172.79
-196.52
-214.6
-225.98
-230.2
-227.79
-219.89
-207.18
-189.12
-164.17
-131.16
-91.0
-47.53
-6.66
25.76
46.27
55.14
55.93
53.65
52.7
55.42
61.81
70.4
79.25
86.9
92.65
96.41
98.27
98.16
95.68
90.26
81.57
69.86
56.15
42.18
30.12
22.35
21.27
28.94
46.28
72.06
102.07
129.31
145.33
142.75
118.1
73.73
17.77
-38.25
-83.11
-109.68
-116.95
-109.58
-95.33
-81.58
-72.67
-68.84
-67.14
-63.31
-53.72
-36.55
-11.93
18.39
51.68
84.49
113.07
133.9
144.48
144.0
133.6
116.36
96.54
78.39
64.66
55.55
48.47
38.75
21.33
-7.13
-46.55
-93.12
-140.33
-181.36
-211.42
-229.25
-236.86
-237.65
-234.15
-226.36
-211.77
-186.73
-148.68
-97.92
-38.35
23.17
78.66
121.05
145.7
151.26
139.57
114.96
83.38
51.19
24.25
6.99
1.46
6.81
19.15
32.3
39.3
34.71
16.8
-11.13
-41.0
-61.79
-62.81
-37.51
13.52
81.5
151.16
205.06
229.16
217.74
175.93
118.35
64.13
29.9
23.79
42.53
73.17
98.41
103.58
82.12
37.81
-17.23
-67.33
-99.11
-105.44
-86.76
-49.38
-2.3
45.7
87.77
119.35
137.8
141.86
131.91
110.14
80.68
48.77
19.16
-5.84
-27.29
-49.32
-77.45
-116.01
-165.68
-222.13
-276.56
-318.36
-339.04
-335.75
-312.63
-278.99
-244.95
-216.82
-194.43
-171.85
-141.08
-96.64
-38.78
26.2
88.41
138.16
169.21
180.27
174.53
157.79
136.34
115.2
97.35
83.94
75.08
70.48
69.66
71.55
74.05
74.06
68.5
55.89
37.58
18.14
4.05
1.67
14.53
41.61
77.06
111.48
134.53
137.79
117.21
74.37
16.46
-45.44
-99.26
-135.42
-149.73
-144.47
-127.28
-107.88
-94.31
-89.93
-92.85
-97.42
-97.17
-87.4
-66.59
-36.08
1.28
42.29
84.0
123.59
157.97
183.76
197.68
197.54
182.98
155.87
119.82
78.81
35.92
-7.31
-50.47
-93.18
-134.32
-172.18
-205.37
-233.77
-258.41
-280.16
-298.18
-309.19
-308.51
-292.36
-260.08
-214.64
-161.15
-104.25
-46.34
12.19
70.84
126.68
173.71
204.53
213.76
200.91
171.38
134.85
101.81
80.15
73.18
79.73
95.76
116.46
137.63
156.21
170.05
177.6
177.78
170.17
155.32
134.8
110.95
86.36
63.43
43.98
29.07
19.13
14.08
13.42
16.15
20.46
23.55
21.78
11.63
-8.81
-38.44
-72.66
-104.42
-126.6
-134.69
-128.48
-111.94
-91.31
-72.45
-58.83
-50.96
-47.3
-45.81
-45.09
-44.65
-44.39
-43.81
-41.68
-36.37
-26.49
-11.73
6.72
26.14
42.8
53.02
54.3
46.24
30.86
11.88
-6.85
-23.03
-36.94
-51.08
-68.57
-90.96
-116.85
-141.83
-160.2
-167.19
-160.75
-141.96
-113.88
-80.13
-43.79
-7.7
24.84
49.94
64.03
65.47
55.65
38.54
18.71
-0.74
-18.94
-36.04
-50.92
-59.85
-57.29
-38.87
-4.6
39.83
84.76
120.52
141.2
146.55
140.84
130.09
119.32
111.12
105.79
102.58
100.86
100.52
101.69
103.96
105.97
105.38
99.63
86.94
67.14
42.0
14.75
-10.85
-31.71
-46.07
-53.7
-55.47
-52.85
-47.72
-42.24
-38.63
-38.62
-42.5
-48.66
-53.95
-55.16
-50.79
-42.18
-33.26
-28.72
-31.65
-42.02
-56.52
-70.0
-77.73
-76.93
-67.52
-51.48
-31.75
-11.16
8.13
24.78
38.14
47.99
54.65
58.93
62.07
65.29
69.36
74.08
78.21
79.94
77.53
70.03
57.57
41.32
23.05
4.65
-12.28
-26.54
-37.45
-44.73
-48.32
-48.31
-44.82
-38.06
-28.54
-17.18
-5.41
5.11
12.93
17.3
18.29
16.67
13.39
9.1
3.9
-2.45
-10.2
-19.15
-28.61
-37.57
-45.11
-50.78
-54.69
-57.25
-58.84
-59.47
-58.69
-55.9
-50.75
-43.43
-34.72
-25.74
-17.51
-10.54
-4.8
0.17
4.86
9.54
14.17
18.53
22.45
26.03
29.64
33.79
38.87
44.8
51.02
56.54
60.25
61.31
59.43
54.87
48.21
40.02
30.55
19.78
7.59
-5.94
-20.31
-34.7
-48.17
-59.99
-69.74
-77.31
-82.7
-85.84
-86.59
-84.71
-79.98
-72.24
-61.53
-48.08
-32.54
-16.02
-0.01
13.81
23.99
29.64
30.7
27.87
22.45
15.88
9.45
4.05
0.09
-2.37
-3.48
-3.44
-2.52
-1.06
0.45
1.41
1.36
0.27
-1.33
-2.48
-2.14
0.3
4.74
10.38
16.14
21.03
24.51
26.55
27.38
27.23
26.08
23.75
19.99
14.74
8.31
1.37
-5.17
-10.38
-13.63
-14.65
-13.61
-11.0
-7.43
-3.41
0.74
4.97
9.39
14.14
19.15
23.99
27.93
30.05
29.57
26.23
20.39
12.98
5.23
-1.84
-7.61
-11.97
-15.2
-17.67
-19.65
-21.17
-22.03
-21.84
-20.21
-16.8
-11.48
-4.43
3.81
12.35
20.15
26.2
29.82
30.92
30.05
28.34
27.14
27.61
30.25
34.82
40.31
45.44
48.96
49.89
47.58
41.64
31.95
18.84
3.27
-13.08
-27.95
-38.92
-43.96
-41.87
-32.48
-16.77
3.34
25.21
45.87
62.57
73.42
77.82
76.61
71.62
65.01
58.47
52.79
47.85
42.98
37.51
31.16
24.22
17.35
11.27
6.51
3.26
1.37
0.55
0.61
1.61
3.89
7.84
13.36
19.37
23.57
22.67
13.23
-7.24
-39.21
-80.64
-127.12
-172.83
-211.68
-238.6
-250.45
-246.62
-229.03
-201.63
-169.33
-136.52
-105.85
-77.66
-50.64
-23.26
4.63
31.02
52.33
65.02
67.46
60.94
49.29
37.27
28.65
25.07
26.03
29.92
35.3
41.79
49.95
60.48
73.11
85.86
95.28
97.58
90.29
73.47
50.12
25.34
4.66
-7.3
-7.52
5.32
31.01
67.4
109.66
149.96
178.88
188.56
176.51
147.3
111.0
78.46
56.01
42.6
31.36
14.5
-11.18
-41.75
-67.92
-79.99
-73.03
-49.03
-15.52
18.56
46.81
67.34
81.98
93.55
103.44
110.45
111.57
104.07
87.67
65.42
42.77
25.24
15.83
13.41
12.94
7.46
-9.17
-40.12
-84.79
-139.38
-197.9
-253.2
-297.61
-324.01
-327.7
-308.65
-272.78
-230.98
-195.24
-173.65
-166.72
-167.32
-164.34
-148.27
-115.55
-69.64
-18.52
29.39
68.5
96.99
115.52
125.33
127.1
121.16
108.71
92.68
77.36
66.94
63.57
66.16
70.59
71.36
64.13
47.86
25.68
4.17
-8.48
-5.24
17.16
56.53
105.01
150.71
180.89
185.94
162.88
116.7
58.92
3.41
-38.66
-62.82
-72.14
-74.84
-79.72
-91.76
-109.89
-127.84
-137.25
-131.42
-107.76
-68.28
-18.27
35.78
87.82
132.95
167.49
188.9
195.99
189.27
171.37
146.66
120.32
96.67
77.59
61.94
46.0
24.85
-5.74
-47.56
-98.99
-155.12
-209.21
-254.73
-287.32
-305.8
-311.65
-307.44
-295.01
-274.47
-244.43
-203.29
-150.99
-90.13
-26.06
34.33
84.28
118.84
136.0
137.0
126.0
109.03
92.59
81.98
80.24
87.7
102.27
120.31
137.62
150.26
155.31
151.39
139.18
121.79
104.69
94.77
98.32
118.31
152.3
192.17
226.26
243.42
236.86
206.1
156.18
95.02
30.49
-31.31
-86.15
-131.07
-163.82
-183.11
-189.13
-183.82
-170.27
-151.59
-130.0
-106.71
-82.6
-58.93
-37.57
-20.6
-9.56
-4.89
-6.16
-12.63
-23.78
-39.49
-59.6
-83.31
-108.71
-133.1
-153.69
-168.4
-176.33
-177.72
-173.89
-167.02
-159.94
-155.54
-155.66
-159.7
-163.98
-162.63
-149.88
-123.14
-84.58
-40.66
0.72
33.63
56.14
70.19
79.34
86.33
91.76
94.72
94.41
91.58
88.88
89.66
96.16
108.2
122.98
136.03
142.87
140.54
128.25
107.43
81.01
52.71
26.79
7.98
1.28
10.94
38.58
81.21
130.51
174.17
199.27
196.58
163.59
105.26
31.93
-44.28
-112.89
-166.94
-203.06
-220.41
-219.55
-202.06
-170.9
-130.75
-87.78
-48.47
-17.88
1.74
11.57
15.56
18.61
24.68
35.4
49.88
65.54
79.59
90.11
96.64
99.97
101.5
102.63
104.26
106.62
109.19
110.51
108.21
99.35
81.27
52.78
15.13
-27.84
-70.54
-107.2
-133.31
-146.52
-146.44
-134.02
-110.89
-79.05
-41.14
-0.57
38.58
72.26
97.4
112.64
118.42
116.57
109.55
99.78
89.19
79.04
69.78
61.06
51.83
40.62
26.07
7.62
-14.16
-37.37
-59.2
-76.4
-85.79
-84.43
-69.9
-40.78
2.22
55.25
110.87
159.04
189.56
195.16
173.89
129.56
70.21
5.3
-56.75
-109.66
-148.96
-171.34
-174.47
-157.9
-124.31
-79.82
-32.8
8.76
39.92
60.22
73.25
84.32
97.9
115.54
135.28
152.5
161.59
157.7
138.27
103.82
58.0
6.9
-42.44
-83.56
-112.08
-126.19
-126.46
-115.08
-95.14
-70.43
-45.65
-26.41
-18.17
-24.4
-44.7
-74.7
-107.87
-138.62
-164.75
-187.46
-208.89
-228.77
-242.63
-242.72
-221.59
-176.17
-110.11
-33.2
41.78
103.03
142.94
159.58
156.39
140.59
120.86
104.85
97.04
98.08
105.39
114.95
123.19
128.15
129.54
127.91
123.8
117.21
107.79
95.2
79.32
60.36
38.49
14.04
-12.11
-37.68
-58.89
-71.27
-71.64
-60.2
-41.16
-21.37
-7.12
-1.33
-2.44
-6.09
-8.3
-8.07
-7.85
-11.45
-21.11
-35.56
-50.51
-61.07
-64.4
-61.08
-54.22
-47.53
-43.27
-41.61
-41.09
-39.96
-37.3
-33.38
-29.18
-25.37
-21.46
-15.82
-6.64
6.61
22.0
35.2
40.95
35.26
17.3
-10.11
-41.51
-70.77
-92.88
-104.82
-105.47
-95.13
-75.19
-48.11
-17.55
12.05
36.52
53.14
61.35
62.72
60.0
56.02
52.78
51.11
50.95
51.78
52.93
53.8
53.85
52.57
49.53
44.51
37.66
29.53
20.98
12.91
5.93
0.19
-4.63
-9.13
-13.91
-19.29
-25.22
-31.28
-36.95
-41.75
-45.54
-48.56
-51.29
-54.29
-57.79
-61.5
-64.58
-65.86
-64.3
-59.38
-51.41
-41.5
-31.22
-22.13
-15.32
-11.12
-9.15
-8.57
-8.45
-8.23
-7.75
-7.36
-7.65
-9.19
-12.33
-17.0
-22.51
-27.54
-30.33
-29.06
-22.67
-11.47
2.57
16.24
26.26
30.43
28.49
22.08
13.93
6.65
1.82
-0.36
-0.82
-0.94
-1.98
-4.63
-8.93
-14.21
-19.28
-22.67
-23.0
-19.39
-11.72
-0.84
11.71
23.99
34.1
40.5
42.38
39.74
33.39
24.79
15.68
7.68
1.96
-0.94
-0.93
1.82
7.22
15.26
25.88
38.63
52.44
65.69
76.72
84.54
89.46
93.29
98.67
108.1
122.73
141.69
162.29
180.93
194.42
200.77
199.52
191.13
176.22
155.03
127.33
92.83
51.61
4.44
-47.16
-100.94
-153.86
-202.18
-241.73
-268.48
-279.44
-273.45
-251.61
-217.15
-174.78
-129.8
-87.31
-51.42
-24.84
-8.61
-2.18
-3.69
-10.72
-20.85
-32.21
-43.7
-54.97
-66.37
-78.59
-92.02
-106.0
-118.37
-125.62
-124.03
-111.22
-87.35
-55.4
-20.06
13.93
43.28
66.76
84.69
98.02
107.6
114.1
118.25
121.21
124.3
128.59
134.43
141.13
147.02
149.83
147.15
137.06
118.77
93.02
62.05
28.99
-3.05
-31.95
-57.01
-78.77
-98.33
-116.6
-133.71
-148.68
-159.33
-162.47
-154.59
-132.95
-97.07
-49.71
3.05
53.21
93.1
117.53
125.04
117.58
99.16
74.2
46.51
19.02
-5.87
-26.0
-39.62
-45.81
-44.92
-38.43
-28.4
-16.59
-3.94
9.42
23.63
38.35
52.43
63.99
70.92
71.52
64.81
50.56
29.2
1.82
-29.74
-62.74
-93.79
-119.61
-137.94
-148.23
-151.79
-151.03
-148.5
-146.09
-144.76
-144.79
-146.06
-148.09
-149.69
-148.69
-142.09
-127.01
-101.9
-67.32
-26.02
17.96
60.59
98.78
130.69
155.34
172.14
180.69
181.14
174.63
163.47
150.6
138.65
128.89
120.83
112.58
101.98
87.8
70.53
52.46
37.15
28.68
31.0
47.14
78.3
122.71
174.92
226.26
266.75
287.9
285.31
259.76
216.15
160.92
99.59
35.73
-28.32
-89.77
-144.35
-186.75
-212.55
-220.17
-211.76
-192.26
-167.31
-141.21
-116.0
-91.86
-68.48
-46.19
-26.38
-10.94
-1.23
2.83
2.89
1.54
1.3
3.43
7.21
10.09
8.57
-0.39
-17.85
-42.03
-68.36
-90.93
-104.68
-107.48
-101.12
-90.72
-82.73
-82.34
-91.43
-107.78
-125.92
-139.28
-142.65
-133.87
-114.18
-87.13
-57.1
-27.8
-1.63
20.1
36.6
47.24
51.75
51.01
47.61
45.35
47.96
57.45
73.19
91.99
109.39
121.39
126.09
124.21
118.12
110.63
104.2
100.75
101.49
106.59
114.71
123.11
128.11
125.58
111.84
84.77
44.49
-6.66
-64.33
-122.32
-172.57
-206.22
-216.38
-200.85
-163.05
-110.92
-54.02
-0.42
42.69
69.47
78.93
75.41
65.19
52.84
40.37
28.55
17.8
8.41
0.82
-4.42
-7.42
-9.13
-10.83
-13.56
-17.76
-23.25
-29.57
-35.61
-39.65
-40.47
-37.37
-29.88
-17.78
-1.21
18.77
39.9
59.22
73.99
82.56
84.98
83.45
81.21
81.23
84.87
91.47
99.2
106.49
113.08
118.7
124.25
130.19
135.66
138.33
135.24
124.36
105.76
81.98
57.49
37.3
25.09
21.91
25.85
32.76
37.88
37.5
30.23
17.12
0.95
-15.53
-30.96
-45.72
-61.64
-80.79
-104.64
-133.1
-163.86
-191.79
-209.26
-207.85
-181.6
-130.63
-62.98
6.67
61.78
90.03
87.79
60.71
20.31
-21.4
-56.31
-81.68
-98.6
-109.08
-113.95
-112.7
-104.79
-91.19
-74.84
-59.85
-49.61
-45.37
-45.94
-48.45
-50.22
-50.02
-48.57
-47.58
-48.74
-52.97
-60.54
-71.43
-85.58
-102.42
-120.25
-136.3
-147.59
-152.4
-151.33
-146.86
-141.55
-136.02
-128.02
-113.58
-89.59
-56.27
-18.01
18.03
44.74
57.76
56.65
44.3
25.37
4.6
-14.13
-28.05
-35.27
-34.83
-26.98
-13.53
2.48
17.54
28.87
35.34
37.78
38.66
41.47
50.06
67.86
96.94
136.82
183.45
229.51
265.8
284.09
279.82
253.27
208.72
152.0
88.29
21.34
-45.36
-106.9
-156.23
-185.6
-189.7
-168.66
-129.07
-82.01
-39.03
-7.96
9.46
17.14
21.96
30.15
44.78
65.06
87.5
107.95
123.49
133.11
137.35
137.24
133.5
126.64
117.36
106.92
96.85
88.09
80.29
71.6
59.37
41.25
16.11
-16.06
-54.71
-99.3
-148.92
-201.16
-251.11
-291.52
-314.54
-314.36
-289.52
-243.47
-183.37
-117.72
-54.25
1.18
44.53
73.08
85.16
80.64
61.63
32.89
1.3
-25.73
-42.27
-45.55
-36.76
-20.63
-3.71
7.85
10.28
3.38
-9.56
-22.61
-28.96
-22.62
-0.15
38.0
87.13
138.8
182.64
208.86
211.15
188.64
146.4
93.77
41.08
-4.01
-39.0
-66.5
-91.83
-119.18
-148.67
-175.67
-192.85
-193.58
-174.92
-138.55
-89.53
-33.87
23.37
78.86
130.14
174.67
209.37
231.08
237.63
228.95
207.6
178.4
147.16
118.81
95.66
76.89
59.09
38.14
11.53
-20.51
-55.39
-89.86
-121.96
-151.6
-179.61
-206.2
-229.56
-245.88
-250.66
-240.57
-214.6
-174.1
-121.95
-61.8
2.1
64.7
120.1
162.17
186.08
190.05
176.24
150.36
119.9
91.84
70.92
58.83
54.41
54.75
56.22
55.26
49.05
36.23
17.6
-3.35
-20.94
-28.8
-22.12
0.01
33.6
70.37
99.9
112.67
102.83
70.19
20.98
-33.24
-78.41
-102.31
-99.23
-72.8
-35.48
-3.97
7.56
-6.43
-40.73
-82.27
-116.38
-133.08
-130.03
-111.22
-82.68
-48.43
-9.15
36.15
87.01
139.37
185.6
217.17
227.99
216.8
187.34
146.66
102.11
58.99
19.33
-18.04
-56.21
-98.77
-148.12
-203.99
-262.63
-316.82
-357.32
-375.34
-365.44
-327.52
-267.33
-195.13
-123.18
-62.95
-22.67
-5.86
-10.69
-30.41
-54.73
-72.15
-72.91
-51.63
-9.0
48.4
109.92
163.86
200.31
213.67
203.72
175.36
137.1
98.62
68.24
50.75
46.57
52.28
62.38
71.34
75.36
73.22
66.05
56.25
46.09
36.79
28.01
18.06
4.75
-13.68
-37.22
-63.11
-85.6
-97.21
-91.52
-66.32
-25.52
21.75
64.4
93.77
106.56
104.88
93.68
77.41
58.04
35.5
9.75
-17.32
-41.57
-58.29
-64.46
-60.24
-48.78
-34.58
-21.66
-12.29
-6.96
-4.91
-4.95
-5.94
-6.76
-6.3
-3.56
1.79
8.88
15.36
17.82
13.05
-0.54
-21.81
-46.86
-70.05
-85.69
-89.62
-80.13
-58.01
-26.06
11.66
50.48
85.83
113.8
131.75
138.64
135.12
123.18
105.66
85.53
65.37
47.07
31.62
19.08
8.77
-0.48
-9.95
-20.62
-32.78
-45.98
-59.16
-71.04
-80.49
-86.8
-89.68
-89.07
-84.94
-77.22
-65.89
-51.11
-33.51
-14.18
5.42
23.68
39.19
50.91
58.33
61.44
60.68
56.71
50.31
42.18
32.87
22.86
12.55
2.38
-7.29
-16.22
-24.46
-32.23
-39.85
-47.5
-55.0
-61.84
-67.18
-70.15
-70.03
-66.54
-59.87
-50.7
-40.1
-29.2
-19.08
-10.5
-3.85
0.77
3.47
4.4
3.76
1.77
-1.15
-4.48
-7.52
-9.65
-10.42
-9.62
-7.3
-3.72
0.74
5.66
10.55
14.96
18.45
20.67
21.43
20.74
18.75
15.69
11.77
7.06
1.56
-4.74
-11.71
-19.04
-26.14
-32.18
-36.29
-37.71
-36.01
-31.25
-24.04
-15.34
-6.22
2.41
10.03
16.49
21.87
26.21
29.37
31.0
30.68
28.1
23.29
16.58
8.67
0.39
-7.4
-14.04
-19.19
-22.87
-25.43
-27.42
-29.39
-31.67
-34.34
-37.18
-39.87
-42.17
-44.13
-46.19
-49.06
-53.52
-60.05
-68.56
-78.29
-87.92
-95.99
-101.29
-103.27
-102.12
-98.63
-93.79
-88.48
-83.15
-77.83
-72.28
-66.38
-60.52
-55.76
-53.75
-56.14
-63.76
-75.81
-89.52
-100.47
-103.77
-95.53
-74.44
-42.5
-4.67
32.58
63.24
83.38
91.83
89.71
79.17
62.14
39.69
12.19
-20.07
-56.37
-95.53
-136.14
-176.83
-215.97
-251.29
-279.54
-296.97
-300.44
-288.74
-263.25
-227.68
-186.9
-145.4
-106.24
-70.74
-38.83
-9.74
17.53
44.08
71.12
99.77
130.72
163.71
197.14
228.37
254.45
273.12
283.59
286.63
284.03
277.75
269.07
258.39
245.51
230.28
213.2
195.43
178.49
163.58
151.08
140.39
130.15
118.79
105.19
89.19
71.71
54.62
40.01
29.64
24.35
23.94
27.33
33.0
39.36
45.11
49.32
51.35
50.97
48.31
43.95
38.81
33.92
30.16
28.06
27.74
29.07
31.77
35.46
39.69
43.99
48.03
51.84
55.85
60.74
67.11
75.08
84.11
93.09
100.95
107.09
111.79
116.17
121.76
129.97
141.73
157.29
175.95
195.81
213.46
224.33
223.8
209.02
180.39
142.15
101.14
64.33
36.24
17.42
4.81
-6.51
-21.01
-41.04
-66.31
-94.52
-122.43
-146.86
-165.1
-175.04
-175.29
-165.14
-144.42
-113.43
-72.93
-24.45
29.5
85.31
138.7
185.69
223.69
252.27
273.28
289.94
305.44
321.59
338.05
352.58
362.25
364.75
359.29
346.72
328.92
307.97
285.34
261.74
237.3
212.22
187.11
162.96
140.64
120.45
101.81
83.52
64.27
43.38
21.08
-1.41
-22.4
-40.28
-54.09
-63.74
-69.94
-73.85
-76.71
-79.48
-82.84
-87.33
-93.5
-102.06
-113.83
-129.47
-149.23
-172.79
-199.4
-228.15
-258.35
-289.67
-321.83
-354.23
-385.53
-413.61
-436.12
-451.15
-457.92
-456.86
-449.3
-436.69
-420.14
-400.11
-376.61
-349.5
-318.5
-283.17
-242.83
-196.95
-145.79
-91.25
-37.11
11.55
49.77
74.58
86.21
88.09
85.63
84.26
87.53
96.27
108.85
122.28
133.67
141.18
144.21
143.02
138.0
129.31
116.98
101.41
83.91
66.66
51.96
41.2
34.09
28.77
22.91
15.21
6.21
-2.09
-7.62
-9.6
-9.19
-8.61
-9.89
-13.71
-19.34
-25.41
-31.04
-36.34
-42.1
-49.05
-57.19
-65.69
-73.42
-79.43
-83.32
-85.15
-85.1
-83.28
-79.62
-73.88
-65.83
-55.47
-43.3
-30.5
-18.76
-9.82
-5.0
-4.62
-8.01
-13.69
-19.97
-25.4
-29.09
-30.66
-30.14
-27.78
-23.94
-19.14
-13.97
-9.04
-4.87
-1.71
0.43
1.82
2.78
3.64
4.57
5.66
6.9
8.24
9.47
10.11
9.47
6.76
1.54
-5.93
-14.56
-22.72
-28.81
-31.84
-31.76
-29.33
-25.76
-22.28
-19.81
-18.92
-19.81
-22.26
-25.58
-28.57
-29.79
-28.0
-22.75
-14.62
-5.15
3.66
10.08
13.21
13.23
11.21
8.58
6.56
5.77
6.08
6.82
7.15
6.36
4.17
0.7
-3.61
-8.23
-12.71
-16.77
-20.4
-23.75
-27.15
-31.01
-35.69
-41.41
-48.07
-55.31
-62.49
-68.92
-74.02
-77.43
-79.1
-79.23
-78.16
-76.19
-73.48
-69.8
-64.57
-56.85
-45.79
-31.1
-13.46
5.3
22.62
35.94
43.5
44.89
40.91
33.15
23.32
12.89
2.94
-5.69
-12.42
-17.02
-19.82
-21.76
-24.07
-27.64
-32.36
-36.87
-38.86
-35.86
-26.3
-10.14
11.0
34.22
56.08
73.43
84.01
86.89
82.51
72.48
59.09
44.59
30.62
17.83
6.03
-5.24
-16.09
-25.92
-33.69
-38.43
-39.93
-38.92
-36.83
-35.12
-34.6
-35.28
-36.64
-38.1
-39.34
-40.38
-41.1
-41.08
-39.53
-35.69
-29.27
-20.74
-11.36
-2.77
3.4
6.03
4.85
0.49
-5.54
-11.17
-14.18
-12.85
-6.42
4.6
18.62
33.48
47.08
57.93
65.34
69.46
71.16
71.97
73.73
78.07
85.51
94.83
103.0
106.11
100.89
86.22
63.8
37.48
11.72
-10.16
-26.85
-38.95
-47.95
-55.12
-61.01
-65.6
-68.9
-71.33
-73.64
-76.44
-79.76
-82.83
-84.37
-83.18
-78.72
-71.44
-62.62
-53.94
-46.86
-42.16
-39.75
-38.87
-38.58
-38.18
-37.47
-36.68
-36.1
-35.77
-35.18
-33.4
-29.39
-22.49
-12.77
-0.93
11.99
25.04
37.75
50.07
62.25
74.52
87.03
99.87
113.2
127.18
141.74
156.22
169.31
179.35
184.91
185.29
180.79
172.46
161.56
149.15
135.82
121.73
106.76
90.64
73.06
53.81
32.89
10.66
-12.18
-34.86
-56.88
-78.14
-98.83
-119.07
-138.48
-156.08
-170.59
-180.88
-186.47
-187.79
-185.93
-182.3
-178.17
-174.35
-171.1
-168.08
-164.41
-158.77
-149.73
-136.1
-117.57
-95.04
-70.75
-47.78
-29.25
-17.31
-12.34
-12.74
-15.44
-16.85
-14.08
-5.95
6.62
20.89
33.26
40.47
40.7
34.18
22.93
10.12
-0.95
-7.64
-8.43
-3.01
7.78
22.28
38.23
53.32
65.67
74.25
79.05
80.76
80.28
78.17
74.45
68.72
60.6
50.22
38.65
28.03
21.29
21.23
29.27
44.27
62.2
77.11
83.2
77.0
58.7
31.94
2.07
-25.85
-48.44
-64.24
-72.86
-74.2
-68.15
-55.13
-36.76
-16.2
2.48
15.64
21.39
20.39
15.55
10.85
9.79
14.14
23.49
35.69
47.93
57.73
63.67
65.46
63.66
59.19
52.91
45.42
37.03
27.89
18.32
9.19
1.89
-2.32
-3.12
-1.9
-1.6
-5.55
-15.94
-32.6
-53.07
-73.83
-92.0
-106.37
-117.25
-125.1
-129.3
-127.83
-118.51
-100.86
-77.48
-53.84
-36.45
-30.27
-36.72
-53.29
-74.64
-94.88
-109.54
-116.62
-116.31
-109.86
-98.57
-83.28
-64.58
-43.42
-21.4
-0.59
17.19
31.04
41.19
48.74
55.03
61.3
68.94
79.98
97.29
123.75
160.41
204.66
249.58
285.14
301.19
290.88
253.05
192.76
119.68
45.24
-20.04
-68.52
-96.04
-101.8
-87.82
-58.43
-19.59
21.93
59.79
89.39
108.85
119.19
123.54
125.76
128.7
133.1
137.52
139.08
134.9
123.2
103.92
78.46
48.93
17.28
-15.23
-48.16
-81.56
-115.54
-149.89
-183.67
-214.97
-240.94
-258.42
-265.08
-260.75
-248.23
-232.71
-219.95
-213.7
-213.79
-216.05
-214.16
-202.31
-177.5
-140.21
-93.73
-42.83
7.33
51.7
85.85
106.54
112.8
106.6
92.77
77.78
67.93
67.5
77.67
96.56
119.9
142.3
158.52
164.86
160.12
146.03
126.73
107.39
92.56
84.96
85.19
92.28
104.28
118.67
132.05
140.0
137.44
120.2
86.81
39.88
-14.33
-67.87
-113.79
-148.1
-169.8
-179.5
-177.63
-163.88
-137.95
-101.31
-58.23
-15.32
20.5
44.49
55.63
56.65
52.55
48.61
48.87
55.38
68.23
85.77
104.96
121.82
132.26
133.01
122.69
102.14
74.07
42.2
10.35
-18.1
-40.5
-55.29
-62.55
-64.43
-64.96
-68.79
-79.21
-96.55
-117.67
-137.24
-150.11
-153.6
-148.33
-137.37
-124.13
-110.22
-94.59
-74.19
-45.86
-8.45
35.96
82.1
123.12
152.86
168.07
169.28
160.12
145.58
129.93
115.57
103.06
92.18
83.06
76.62
74.09
75.91
80.78
85.69
86.95
81.73
69.35
51.59
31.68
12.83
-3.07
-15.59
-25.1
-31.78
-35.26
-35.19
-32.14
-28.21
-26.66
-30.62
-41.68
-59.22
-80.81
-103.35
-124.01
-140.49
-150.51
-151.27
-139.53
-112.73
-70.66
-16.67
42.4
97.73
141.05
167.03
174.65
166.96
149.5
128.24
107.86
90.97
78.36
69.74
64.47
61.97
61.59
62.33
62.6
60.38
53.61
40.87
22.0
-1.71
-27.8
-53.3
-75.6
-92.96
-104.7
-110.94
-112.2
-109.04
-102.02
-91.8
-79.25
-65.49
-51.66
-38.62
-26.75
-15.87
-5.51
4.92
15.69
26.69
37.4
47.08
55.03
60.78
64.25
65.65
65.47
64.2
62.21
59.64
56.37
52.15
46.72
39.99
32.16
23.75
15.42
7.87
1.51
-3.51
-7.39
-10.53
-13.42
-16.44
-19.77
-23.4
-27.04
-30.24
-32.47
-33.26
-32.43
-30.1
-26.74
-22.88
-18.94
-15.03
-10.96
-6.45
-1.33
4.2
9.73
14.64
18.49
21.09
22.55
23.19
23.35
23.33
23.26
23.17
22.91
22.3
21.08
19.05
16.06
12.11
7.31
1.89
-3.8
-9.36
-14.39
-18.57
-21.76
-24.07
-25.85
-27.62
-29.84
-32.72
-36.04
-39.1
-40.9
-40.46
-37.17
-31.01
-22.61
-13.05
-3.51
4.98
11.82
16.81
20.13
22.13
23.19
23.61
23.58
23.17
22.39
21.32
20.05
18.72
17.4
16.05
14.51
12.62
10.34
7.76
5.1
2.55
0.12
-2.33
-5.08
-8.27
-11.89
-15.74
-19.56
-23.23
-26.79
-30.46
-34.33
-38.23
-41.58
-43.55
-43.35
-40.55
-35.3
-28.24
-20.32
-12.39
-5.04
1.52
7.32
12.47
17.0
20.73
23.4
24.78
24.8
23.64
21.69
19.5
17.48
15.92
14.82
14.01
13.28
12.48
11.51
10.38
9.04
7.47
5.62
3.52
1.27
-1.04
-3.36
-5.76
-8.4
-11.46
-15.05
-19.0
-22.9
-26.08
-27.8
-27.45
-24.83
-20.19
-14.23
-7.82
-1.72
3.64
8.13
11.84
14.83
17.03
18.3
18.57
17.98
16.86
15.62
14.57
13.83
13.26
12.6
11.65
10.35
8.79
7.19
5.76
4.57
3.55
2.47
1.12
-0.64
-2.77
-5.1
-7.4
-9.48
-11.31
-13.0
-14.75
-16.8
-19.28
-22.2
-25.34
-28.22
-30.18
-30.55
-28.84
-24.92
-19.12
-12.11
-4.73
2.26
8.29
13.12
16.68
19.04
20.32
20.69
20.28
19.28
17.85
16.17
14.38
12.6
10.9
9.31
7.77
6.23
4.57
2.76
0.79
-1.26
-3.35
-5.4
-7.43
-9.47
-11.48
-13.41
-15.22
-16.89
-18.53
-20.23
-21.95
-23.4
-24.04
-23.24
-20.56
-15.98
-9.95
-3.23
3.34
9.1
13.7
17.04
19.16
20.21
20.38
19.91
19.08
18.08
17.0
15.82
14.47
12.9
11.15
9.31
7.43
5.55
3.66
1.76
-0.09
-1.79
-3.19
-4.22
-4.94
-5.55
-6.41
-7.89
-10.33
-13.91
-18.54
-23.83
-29.12
-33.63
-36.58
-37.41
-35.86
-32.08
-26.52
-19.86
-12.85
-6.13
-0.19
4.72
8.49
11.2
12.97
14.04
14.63
14.94
15.1
15.11
14.98
14.68
14.27
13.91
13.77
13.96
14.43
15.01
15.43
15.46
14.98
13.95
12.39
10.36
7.91
5.15
2.28
-0.52
-3.13
-5.59
-8.09
-10.93
-14.3
-18.1
-21.82
-24.71
-25.94
-24.98
-21.81
-17.02
-11.53
-6.33
-2.09
0.95
2.99
4.41
5.51
6.39
6.92
6.94
6.37
5.34
4.11
2.98
2.07
1.34
0.57
-0.49
-1.95
-3.73
-5.6
-7.23
-8.45
-9.27
-9.91
-10.61
-11.57
-12.87
-14.48
-16.32
-18.29
-20.3
-22.16
-23.58
-24.14
-23.44
-21.21
-17.45
-12.43
-6.59
-0.41
5.71
11.44
16.36
19.95
21.57
20.71
17.31
12.05
6.28
1.78
0.07
1.96
7.21
14.6
22.33
28.46
31.43
30.25
24.67
15.2
3.04
-10.09
-22.32
-31.98
-38.06
-40.38
-39.56
-36.74
-33.14
-29.71
-26.92
-24.79
-23.08
-21.39
-19.37
-16.79
-13.52
-9.54
-4.99
-0.16
4.57
8.84
12.38
15.15
17.33
19.11
20.65
21.89
22.55
22.36
21.2
19.22
16.83
14.49
12.55
11.11
10.01
8.91
7.49
5.54
3.04
0.14
-2.89
-5.74
-8.16
-10.04
-11.4
-12.38
-13.13
-13.78
-14.4
-14.99
-15.56
-16.13
-16.66
-17.01
-16.85
-15.74
-13.24
-9.16
-3.71
2.44
8.33
13.11
16.31
18.06
19.02
20.16
22.3
25.8
30.34
34.97
38.4
39.33
36.81
30.46
20.61
8.24
-5.22
-18.16
-29.08
-36.84
-40.99
-41.69
-39.66
-35.94
-31.55
-27.24
-23.32
-19.72
-16.13
-12.24
-8.0
-3.66
0.21
2.91
3.9
3.12
1.04
-1.28
-2.64
-2.0
1.14
6.57
13.49
20.8
27.41
32.47
35.51
36.44
35.52
33.24
30.26
27.33
25.07
23.94
24.12
25.52
27.76
30.25
32.18
32.7
31.1
27.02
20.59
12.48
3.63
-4.98
-12.68
-19.18
-24.64
-29.45
-34.0
-38.61
-43.4
-48.27
-52.98
-57.13
-60.25
-61.89
-61.73
-59.6
-55.55
-49.75
-42.47
-34.0
-24.7
-14.99
-5.38
3.6
11.48
17.97
23.01
26.72
29.33
31.14
32.44
33.52
34.62
35.88
37.32
38.78
40.0
40.72
40.72
39.92
38.39
36.23
33.64
30.83
28.02
25.39
23.01
20.83
18.58
15.92
12.52
8.12
2.61
-3.98
-11.43
-19.31
-26.94
-33.46
-37.95
-39.77
-38.76
-35.32
-30.36
-24.91
-19.82
-15.58
-12.31
-9.93
-8.31
-7.36
-7.03
-7.16
-7.51
-7.8
-7.78
-7.38
-6.67
-5.86
-5.17
-4.73
-4.6
-4.71
-4.97
-5.27
-5.58
-5.84
-6.05
-6.22
-6.36
-6.48
-6.62
-6.89
-7.41
-8.35
-9.75
-11.54
-13.41
-14.88
-15.4
-14.49
-11.97
-7.91
-2.72
3.03
8.74
13.86
18.0
20.96
22.66
23.1
22.39
20.71
18.31
15.58
12.93
10.76
9.3
8.5
8.04
7.46
6.36
4.59
2.28
-0.25
-2.64
-4.65
-6.2
-7.4
-8.35
-9.22
-10.14
-11.26
-12.71
-14.63
-17.07
-20.0
-23.2
-26.25
-28.6
-29.59
-28.68
-25.6
-20.54
-14.11
-7.19
-0.61
5.06
9.64
13.41
16.81
20.22
23.7
27.01
29.84
31.98
33.52
34.81
36.29
38.28
40.84
43.75
46.96
50.81
55.91
62.87
71.81
82.07
92.2
100.36
104.52
103.74
98.54
90.81
83.39
79.43
81.6
91.18
107.25
125.78
141.42
148.75
143.57
123.96
91.02
48.79
3.47
-38.14
-71.61
-94.74
-108.5
-117.51
-128.94
-150.19
-185.89
-235.63
-293.59
-351.4
-398.68
-426.34
-429.55
-408.75
-368.58
-315.66
-256.5
-188.37
-116.35
-50.08
0.53
30.23
39.78
34.36
21.14
7.02
-2.63
-7.58
-8.77
-7.3
-3.95
1.27
9.08
21.0
38.97
63.14
91.88
123.54
156.0
186.16
209.86
222.76
222.1
208.03
183.91
154.73
126.18
102.54
85.43
74.02
66.35
60.95
57.39
55.9
56.34
57.93
59.26
58.68
54.82
46.97
35.28
20.72
5.0
-9.53
-20.24
-24.97
-22.95
-15.19
-4.2
7.0
16.01
21.69
24.14
23.87
21.04
15.12
5.2
-9.23
-27.75
-48.85
-70.31
-89.9
-106.0
-118.01
-126.43
-132.69
-138.52
-145.51
-154.58
-165.69
-177.88
-189.33
-197.36
-198.5
-189.36
-167.76
-134.34
-92.92
-49.49
-9.66
23.9
52.45
79.86
109.58
141.89
172.92
196.42
206.9
202.41
185.36
161.07
135.32
112.21
93.53
79.4
69.44
63.48
61.5
63.3
67.95
73.57
77.73
78.22
73.75
64.48
52.01
38.6
26.35
16.34
8.37
1.37
-5.84
-13.75
-21.88
-29.09
-34.11
-36.19
-35.15
-31.26
-24.78
-15.81
-4.41
9.03
23.56
37.66
49.6
57.9
61.67
60.65
55.08
45.47
32.48
16.92
-0.2
-17.72
-34.41
-49.28
-61.65
-71.29
-78.18
-82.41
-83.84
-82.12
-76.73
-67.27
-53.73
-36.75
-17.57
2.08
20.28
35.39
46.28
52.72
55.34
55.63
55.57
57.2
62.19
71.34
84.48
100.45
117.4
133.27
146.24
155.21
159.98
161.28
160.53
159.51
159.98
163.22
169.74
178.83
188.63
196.38
199.28
195.51
185.06
169.93
153.52
139.1
128.24
119.79
109.99
94.08
68.38
32.32
-10.88
-55.18
-93.74
-121.33
-135.92
-138.98
-134.55
-127.65
-122.93
-123.59
-130.6
-142.4
-154.91
-162.59
-160.72
-147.75
-126.94
-106.12
-95.16
-102.14
-129.57
-172.62
-220.51
-260.58
-283.27
-285.74
-272.29
-251.8
-233.49
-223.07
-220.97
-223.07
-223.43
-217.56
-204.74
-188.07
-172.7
-163.31
-162.05
-168.08
-178.47
-189.78
-199.29
-205.38
-206.85
-201.91
-188.03
-162.74
-125.23
-77.52
-24.18
29.1
77.58
118.78
152.5
179.71
201.16
216.64
225.09
225.52
217.97
204.08
186.79
169.52
155.06
144.74
138.18
133.65
128.84
121.6
110.65
95.84
78.47
61.55
49.9
49.32
64.69
97.51
143.85
194.32
236.49
258.95
255.32
225.93
176.76
116.37
52.86
-7.92
-62.2
-107.21
-140.25
-158.85
-161.6
-149.02
-123.78
-90.03
-52.39
-15.03
18.61
45.87
64.81
73.99
72.56
60.27
37.47
5.18
-34.95
-80.73
-129.85
-180.16
-229.86
-277.21
-320.18
-356.11
-381.84
-394.41
-392.17
-375.63
-347.61
-312.52
-274.71
-237.17
-200.77
-164.58
-126.94
-86.6
-43.31
2.35
49.19
95.45
138.44
174.47
199.26
209.13
202.33
179.7
144.49
101.09
53.43
3.77
-47.44
-100.59
-155.2
-208.46
-254.86
-287.27
-299.25
-287.5
-253.29
-202.21
-142.25
-81.13
-24.19
26.24
70.03
107.93
140.5
167.89
189.92
206.41
217.2
222.12
220.91
213.52
200.36
182.4
161.25
138.95
117.84
100.42
89.07
85.6
90.55
102.61
118.79
135.11
148.18
156.43
160.82
164.27
169.98
179.53
191.9
203.99
212.33
214.81
211.35
203.16
191.2
175.17
153.59
125.29
91.04
54.23
20.04
-6.45
-22.08
-26.51
-21.75
-10.79
3.57
19.43
35.74
51.92
67.49
81.82
94.32
104.49
112.12
117.35
120.47
121.77
121.52
119.95
117.41
114.56
112.44
112.25
115.11
121.63
131.62
144.11
157.61
170.55
181.65
189.9
194.52
194.63
189.38
178.08
160.67
137.83
110.84
80.91
48.59
13.73
-23.86
-63.16
-101.21
-133.37
-154.88
-163.09
-158.9
-146.77
-132.88
-122.4
-117.39
-116.23
-115.03
-110.1
-100.22
-87.48
-76.4
-72.02
-77.81
-94.55
-120.46
-152.02
-184.99
-214.88
-236.89
-246.43
-240.45
-219.44
-188.38
-155.61
-129.4
-114.04
-107.89
-104.78
-98.39
-86.72
-73.86
-67.76
-75.23
-97.46
-128.65
-158.62
-177.55
-180.07
-166.35
-140.46
-107.34
-70.43
-31.32
9.13
49.1
85.1
112.39
126.77
126.58
113.63
92.83
70.38
51.56
38.83
31.19
24.76
14.43
-4.29
-33.6
-72.58
-117.36
-162.06
-200.34
-226.96
-239.14
-237.09
-223.81
-203.73
-180.99
-157.86
-134.03
-107.42
-76.04
-39.87
-1.83
33.01
59.56
75.1
80.42
79.18
75.8
73.18
71.78
70.37
67.88
64.9
63.82
67.47
77.13
91.05
104.7
112.53
110.55
98.26
79.26
59.95
47.1
45.68
57.23
79.62
107.85
135.21
154.63
159.92
147.42
117.6
75.77
30.91
-7.44
-33.31
-47.25
-55.93
-68.54
-91.34
-123.69
-157.79
-182.45
-188.73
-174.3
-144.18
-107.9
-75.01
-51.59
-39.34
-37.22
-43.78
-58.56
-81.87
-113.82
-152.79
-195.13
-236.09
-271.18
-297.45
-314.08
-322.06
-323.27
-319.48
-311.28
-297.85
-277.22
-247.17
-206.57
-156.19
-98.83
-38.29
21.93
79.78
134.73
186.86
235.81
280.2
318.02
347.51
367.79
378.83
380.71
373.02
355.0
326.71
290.16
249.78
211.34
179.73
156.95
141.73
131.03
122.55
116.46
115.44
122.84
140.02
164.78
191.75
214.59
228.6
232.37
227.54
217.1
203.46
187.62
169.56
149.32
127.89
107.03
88.45
72.59
58.02
41.72
20.21
-8.72
-44.62
-84.0
-121.17
-150.21
-167.23
-171.92
-167.55
-159.49
-152.75
-149.93
-150.5
-151.68
-150.31
-144.64
-134.93
-122.74
-109.72
-96.42
-82.14
-65.69
-46.38
-24.85
-3.02
16.42
30.74
37.82
36.56
27.03
10.64
-9.84
-30.59
-47.36
-56.45
-55.65
-44.8
-25.73
-1.73
23.2
44.93
59.58
63.93
55.9
35.26
4.09
-33.28
-71.18
-103.97
-127.53
-140.34
-143.47
-139.82
-132.77
-124.82
-116.93
-108.52
-98.23
-84.88
-68.26
-49.22
-29.27
-9.79
8.58
26.05
43.25
60.67
78.27
95.49
111.74
126.87
141.24
155.42
169.44
182.28
191.7
194.72
188.55
171.68
144.82
111.27
76.56
47.16
28.71
24.51
34.4
54.67
79.09
100.46
112.43
110.72
93.87
63.49
23.92
-18.68
-57.69
-87.8
-106.49
-114.45
-114.86
-111.6
-107.54
-103.67
-99.53
-94.35
-88.09
-81.62
-76.0
-71.6
-67.56
-62.35
-54.78
-45.08
-35.28
-28.72
-29.27
-40.04
-62.32
-94.86
-133.75
-173.3
-207.74
-233.06
-248.17
-254.56
-254.7
-250.03
-239.79
-221.42
-192.28
-151.78
-102.52
-49.93
-0.71
39.33
66.69
80.65
82.86
76.36
64.68
51.26
38.97
29.94
25.54
26.02
30.25
35.67
39.1
38.12
33.02
28.01
30.54
48.67
86.91
142.81
206.29
262.42
296.64
299.74
270.76
216.35
147.96
77.93
16.31
-30.87
-62.0
-79.3
-87.64
-92.62
-98.64
-107.24
-116.73
-123.24
-122.82
-113.37
-95.49
-71.78
-45.58
-19.73
3.81
23.76
39.19
49.34
53.63
51.73
43.38
28.02
4.75
-27.17
-67.53
-114.32
-163.49
-209.49
-246.3
-268.74
-273.3
-258.58
-225.16
-175.43
-113.43
-44.76
23.75
84.76
131.61
159.52
166.49
153.67
124.86
85.52
41.54
-1.77
-40.41
-71.77
-94.53
-108.32
-113.25
-109.68
-97.86
-77.85
-49.76
-13.86
29.36
79.46
135.97
197.66
261.54
322.02
371.21
400.89
405.21
382.9
337.62
276.4
207.01
135.65
66.42
2.15
-54.05
-97.94
-124.63
-130.37
-114.49
-80.69
-36.63
8.03
44.33
66.54
73.5
68.0
54.82
38.2
20.12
0.02
-24.19
-54.57
-92.01
-135.87
-184.19
-234.11
-282.02
-323.63
-354.22
-369.33
-365.82
-342.75
-301.72
-246.45
-181.64
-112.06
-41.96
24.64
83.62
130.6
161.66
174.49
169.3
149.0
118.36
82.56
45.9
11.24
-19.93
-47.06
-70.2
-89.88
-106.98
-122.37
-136.13
-147.05
-152.64
-149.66
-135.05
-106.86
-65.35
-13.74
41.54
91.59
126.93
140.25
128.88
95.93
49.4
-0.44
-44.31
-76.51
-95.7
-104.02
-105.03
-101.75
-95.62
-86.42
-72.88
-53.63
-27.7
5.23
44.71
89.22
135.91
180.16
216.03
237.5
240.57
225.02
195.12
158.43
123.09
94.68
74.18
57.96
39.99
14.96
-19.05
-59.51
-100.43
-134.71
-156.61
-163.27
-154.81
-133.07
-99.95
-56.47
-3.34
57.58
121.65
181.18
226.82
250.56
248.9
224.56
185.72
143.14
106.11
79.23
61.46
47.6
31.36
8.47
-21.69
-56.09
-89.44
-115.93
-130.77
-131.14
-117.11
-92.0
-62.05
-34.84
-16.58
-9.26
-9.31
-8.56
2.14
28.77
71.08
122.76
174.13
216.13
243.16
253.76
249.36
232.45
205.67
172.05
135.8
102.41
77.56
64.96
64.39
71.26
77.98
76.95
63.68
38.58
6.68
-24.17
-46.06
-53.22
-43.34
-18.05
17.44
55.39
87.62
108.36
116.86
118.29
121.97
137.34
169.48
216.51
270.5
321.16
360.21
383.96
393.13
390.35
377.53
354.79
321.44
277.92
227.03
173.71
123.32
79.56
43.01
11.11
-20.37
-55.16
-94.44
-136.03
-174.97
-205.58
-223.77
-228.97
-224.48
-216.36
-211.4
-215.08
-230.35
-257.33
-293.61
-334.64
-374.28
-405.63
-422.53
-421.49
-403.26
-373.22
-340.07
-313.02
-298.48
-297.56
-305.75
-314.8
-315.86
-302.91
-274.41
-233.18
-184.47
-133.44
-83.14
-33.89
15.83
67.65
121.72
176.03
226.93
270.18
301.98
319.48
320.91
305.61
274.28
229.3
175.16
118.2
65.54
23.42
-4.46
-17.73
-18.98
-12.32
-1.77
9.94
21.65
33.14
44.33
54.52
62.4
66.78
67.51
65.87
64.23
64.86
68.67
74.66
80.46
83.84
84.0
82.14
80.48
80.63
82.03
81.49
74.26
55.52
22.39
-24.65
-81.09
-138.48
-185.68
-210.94
-205.0
-164.48
-94.12
-6.58
80.78
151.02
192.51
201.58
181.96
141.75
89.81
33.28
-22.77
-74.56
-118.49
-151.14
-170.14
-175.26
-168.88
-155.19
-138.45
-121.46
-104.9
-88.07
-69.98
-50.85
-32.64
-18.55
-11.86
-14.57
-26.72
-46.43
-70.5
-95.27
-117.46
-134.83
-146.44
-152.73
-155.09
-155.16
-154.08
-151.93
-147.82
-140.56
-129.44
-114.79
-97.91
-80.51
-63.99
-49.09
-35.9
-24.14
-13.42
-3.31
6.69
17.15
28.56
41.14
54.68
68.46
81.46
92.52
100.53
104.64
104.38
99.74
91.29
80.15
67.73
55.47
44.44
35.19
27.75
21.86
17.14
13.22
9.88
6.93
4.31
2.06
0.36
-0.57
-0.47
0.7
2.73
5.17
7.43
8.97
9.41
8.67
6.88
4.33
1.44
-1.41
-3.87
-5.86
-7.52
-9.24
-11.42
-14.26
-17.44
-20.1
-21.03
-19.37
-15.25
-10.19
-6.88
-8.19
-16.0
-30.15
-48.4
-67.12
-82.66
-92.59
-96.34
-94.93
-90.04
-82.96
-73.97
-62.46
-47.68
-29.6
-9.36
10.9
28.87
43.11
53.73
62.36
71.19
81.62
93.16
103.02
106.99
101.02
83.02
54.13
19.06
-14.87
-39.46
-48.09
-38.07
-12.01
22.27
53.61
70.57
65.02
35.21
-13.06
-67.94
-115.5
-144.95
-152.75
-143.82
-128.97
-119.7
-122.68
-136.75
-153.89
-163.39
-157.2
-133.55
-97.14
-56.28
-18.77
11.17
33.44
50.53
65.12
78.56
90.57
100.19
106.85
110.86
113.06
114.44
116.09
119.76
127.95
143.3
166.73
195.8
224.33
243.86
246.71
228.78
190.82
137.71
76.33
13.43
-45.43
-96.09
-135.48
-161.57
-173.75
-173.11
-162.2
-144.31
-122.28
-97.97
-72.06
-44.61
-15.66
14.21
43.64
70.67
93.15
109.47
119.22
123.27
123.17
120.2
114.48
104.69
88.66
64.34
30.68
-12.08
-62.58
-118.43
-176.17
-231.01
-276.94
-307.71
-318.32
-306.43
-273.07
-222.3
-160.13
-93.47
-29.43
25.11
64.26
84.24
84.68
69.03
43.82
16.67
-6.02
-20.53
-26.01
-23.76
-16.0
-4.96
7.75
21.7
38.24
60.42
92.02
135.35
188.86
245.95
296.04
327.75
332.84
308.94
259.99
194.27
121.51
50.46
-12.49
-63.34
-100.16
-122.74
-132.43
-131.74
-123.66
-110.86
-95.0
-76.77
-56.52
-34.9
-13.2
6.72
22.98
34.25
39.95
40.68
38.14
35.16
34.91
39.75
49.87
62.47
72.04
71.95
56.81
24.68
-21.92
-76.68
-131.54
-179.0
-213.83
-233.45
-237.36
-226.18
-201.21
-164.52
-119.49
-71.12
-25.65
10.54
32.49
37.91
27.72
5.42
-24.05
-55.57
-84.75
-108.27
-124.07
-131.22
-129.99
-121.7
-108.35
-91.9
-73.35
-52.42
-27.55
3.46
42.75
91.58
149.45
213.28
276.92
331.78
368.56
379.99
363.26
321.1
260.75
191.23
120.43
53.27
-7.99
-61.98
-106.27
-136.66
-148.13
-136.92
-102.9
-50.49
11.63
72.63
122.09
152.56
161.17
149.91
124.82
93.97
64.93
42.42
26.96
14.95
0.33
-22.68
-56.96
-101.11
-150.24
-198.15
-239.74
-272.21
-294.65
-306.4
-305.82
-290.57
-258.91
-211.36
-151.37
-84.55
-17.31
44.6
96.77
136.23
161.16
170.84
165.94
148.79
123.23
93.89
65.29
41.07
23.38
12.52
7.05
4.25
1.39
-2.77
-6.85
-6.83
2.85
27.21
68.73
125.76
192.09
257.82
311.51
343.05
346.52
321.81
274.42
213.41
148.14
85.58
28.85
-21.93
-67.45
-106.81
-136.26
-150.09
-143.12
-113.86
-66.43
-10.33
42.28
80.62
98.98
98.09
83.62
63.1
42.59
25.19
11.07
-1.12
-12.91
-25.42
-39.66
-57.08
-79.37
-107.53
-140.54
-174.98
-206.03
-229.39
-243.16
-248.36
-247.69
-243.37
-235.51
-221.8
-198.89
-164.42
-118.59
-64.61
-7.8
45.82
90.84
123.27
140.83
143.29
132.66
113.11
90.04
68.77
53.2
44.79
42.4
43.05
42.75
37.53
24.49
2.64
-26.12
-56.62
-80.94
-90.3
-78.01
-42.6
10.62
70.74
124.96
163.46
182.97
187.05
183.31
178.94
177.16
176.41
172.32
161.09
142.17
118.95
97.15
82.34
77.57
82.25
92.76
103.46
108.27
102.22
82.77
50.82
11.43
-26.59
-52.74
-58.08
-38.94
0.84
50.58
96.29
125.53
131.57
114.57
79.83
34.11
-17.62
-73.35
-132.59
-193.82
-252.62
-301.93
-334.47
-345.81
-336.36
-311.03
-276.64
-238.58
-198.72
-155.41
-105.93
-49.67
9.96
66.0
110.65
138.32
147.47
140.32
121.06
93.97
62.47
29.25
-2.92
-31.07
-52.74
-66.97
-74.88
-79.2
-82.89
-87.44
-92.05
-93.68
-87.77
-69.72
-36.44
12.05
71.47
133.2
185.81
218.22
223.42
200.84
156.2
98.84
37.99
-19.8
-71.02
-113.42
-144.11
-159.17
-155.32
-132.61
-95.88
-53.89
-16.09
11.03
26.04
32.02
34.05
36.09
39.13
41.36
39.77
31.98
17.7
-0.92
-19.72
-33.59
-37.79
-29.63
-9.76
17.17
43.29
59.54
58.42
36.41
-5.04
-60.06
-120.37
-177.5
-224.38
-256.01
-269.32
-263.02
-237.69
-196.14
-143.46
-86.56
-32.87
11.2
41.6
57.19
59.45
51.65
37.84
22.31
9.13
1.78
2.5
11.61
27.29
45.89
63.12
75.3
80.74
80.35
77.46
77.11
84.94
105.94
143.11
195.87
259.24
324.04
378.87
413.26
420.95
401.68
360.61
305.78
244.61
181.48
117.56
52.7
-11.84
-71.61
-119.56
-148.63
-154.94
-139.83
-109.63
-73.34
-39.57
-14.1
1.14
7.15
6.22
0.48
-8.9
-21.47
-36.98
-55.0
-74.88
-95.98
-117.91
-140.65
-164.44
-189.45
-215.49
-241.89
-267.43
-290.48
-309.03
-320.82
-323.38
-314.36
-292.27
-257.2
-211.39
-158.99
-105.2
-54.87
-11.42
23.6
50.12
68.72
79.97
84.39
82.97
77.66
71.41
67.46
68.2
74.31
84.38
95.62
104.65
108.65
106.1
97.24
84.33
71.77
65.82
73.28
99.13
143.95
202.08
262.2
310.56
335.46
331.19
299.34
247.19
184.39
119.62
58.77
4.85
-41.23
-79.84
-112.23
-140.14
-164.95
-186.67
-203.22
-211.03
-206.79
-189.65
-162.24
-130.09
-99.58
-75.57
-59.69
-50.12
-42.49
-31.82
-14.48
10.04
38.49
64.45
79.99
78.19
55.31
12.15
-46.15
-111.28
-173.64
-224.19
-255.93
-264.77
-250.05
-214.71
-164.65
-107.72
-52.12
-4.84
29.52
49.15
54.83
49.27
36.15
19.3
2.06
-12.9
-23.58
-28.65
-27.57
-20.83
-10.1
2.1
13.46
23.04
32.06
43.92
63.34
94.7
140.18
198.23
262.92
324.88
373.48
399.83
399.34
372.94
326.11
266.48
200.84
133.44
66.05
-0.41
-63.95
-120.68
-165.46
-193.72
-203.23
-194.96
-172.77
-142.25
-109.52
-80.07
-58.13
-46.37
-45.68
-55.14
-72.01
-91.99
-109.88
-120.59
-120.82
-110.57
-94.09
-79.18
-74.79
-87.5
-118.46
-162.15
-207.87
-243.29
-258.53
-249.01
-215.89
-164.51
-102.03
-35.53
28.8
85.45
129.46
156.77
165.21
155.47
131.32
98.96
65.42
36.79
16.93
6.96
5.61
9.95
16.5
22.11
24.88
24.86
24.22
26.9
37.71
61.03
99.46
152.38
215.37
280.38
337.33
376.64
391.98
381.94
349.89
302.0
244.48
181.5
114.97
46.21
-21.98
-84.17
-133.37
-163.78
-173.63
-166.42
-149.42
-130.45
-114.62
-102.83
-92.52
-80.44
-65.5
-50.17
-39.58
-39.17
-52.03
-77.47
-111.34
-147.33
-178.62
-199.01
-204.09
-192.53
-167.27
-135.83
-108.31
-93.44
-94.07
-104.98
-114.06
-107.44
-75.92
-19.62
51.33
120.55
171.22
191.83
179.49
140.12
85.9
31.19
-11.47
-34.17
-34.4
-14.11
22.37
69.84
122.58
173.8
215.32
238.79
238.33
213.44
170.24
120.01
75.17
44.59
30.52
28.7
31.09
29.45
18.72
-1.84
-29.26
-58.82
-86.03
-107.88
-123.43
-133.89
-142.22
-152.27
-167.33
-188.35
-212.75
-234.53
-246.14
-241.67
-219.55
-183.54
-141.11
-100.14
-65.64
-38.14
-14.55
9.41
36.3
65.77
95.12
121.18
142.25
158.73
172.24
184.01
193.82
200.29
202.26
199.97
195.25
190.36
186.64
183.83
180.77
176.71
172.03
167.8
164.48
160.87
154.54
143.39
127.44
109.3
92.84
80.93
73.85
69.33
64.2
56.41
45.94
34.43
23.87
14.99
6.88
-2.62
-15.88
-34.33
-57.82
-84.63
-112.1
-137.56
-159.12
-175.86
-187.58
-194.19
-195.34
-190.64
-180.36
-166.24
-151.73
-141.32
-138.97
-146.41
-162.18
-182.0
-200.19
-211.81
-214.17
-207.3
-193.15
-174.26
-152.65
-129.51
-105.56
-81.6
-58.66
-37.7
-18.92
-1.64
15.36
32.98
51.02
68.36
83.77
97.07
109.76
124.4
143.07
165.63
188.93
207.44
215.18
208.04
185.43
150.46
108.82
66.89
30.01
1.58
-17.15
-26.76
-29.13
-26.99
-23.47
-21.49
-23.1
-28.99
-38.36
-49.22
-59.07
-65.64
-67.37
-63.84
-55.82
-45.26
-34.89
-27.78
-26.65
-33.15
-47.49
-68.49
-93.97
-121.37
-148.5
-173.95
-197.12
-217.95
-236.31
-251.49
-261.9
-264.97
-257.6
-236.87
-201.23
-151.66
-92.48
-31.16
23.2
62.39
81.62
80.77
63.7
36.08
3.07
-31.68
-65.45
-94.86
-115.05
-120.4
-106.57
-72.65
-21.67
40.75
108.65
177.31
243.25
303.11
352.41
385.77
398.48
388.38
357.16
309.67
251.88
188.77
123.34
57.28
-7.4
-67.08
-116.63
-151.17
-168.5
-170.69
-163.91
-156.15
-154.2
-161.19
-176.15
-195.62
-216.29
-236.78
-257.43
-278.57
-298.38
-312.26
-314.11
-299.05
-265.56
-215.94
-155.08
-88.26
-20.08
45.07
101.73
143.15
162.76
156.98
127.52
81.43
28.74
-20.95
-60.97
-88.17
-101.6
-101.16
-87.05
-60.38
-24.15
16.9
57.63
94.45
126.49
155.35
183.48
212.1
240.03
263.88
279.57
284.17
277.46
262.56
245.19
231.78
227.15
232.69
245.98
262.11
275.99
284.56
287.61
286.95
284.55
280.76
273.69
260.22
237.63
205.03
163.69
116.64
67.86
21.68
-17.61
-46.35
-62.61
-67.09
-63.46
-57.28
-53.91
-56.43
-64.58
-75.41
-85.09
-90.68
-91.06
-86.59
-78.32
-67.57
-56.28
-47.35
-44.58
-51.42
-69.18
-95.64
-125.38
-151.78
-169.86
-178.33
-179.5
-177.32
-174.84
-172.66
-169.22
-162.45
-151.54
-137.45
-122.05
-106.69
-91.41
-75.29
-57.7
-39.25
-21.51
-5.85
7.91
21.48
36.96
54.97
73.75
89.74
99.32
100.87
95.35
85.53
74.05
61.98
48.5
32.08
12.18
-9.62
-29.61
-43.23
-46.79
-38.95
-21.42
1.31
22.93
37.06
39.26
28.74
9.02
-13.18
-30.43
-37.63
-34.04
-23.22
-11.01
-2.46
0.53
-0.31
-0.91
2.81
13.02
29.46
50.21
72.89
95.39
115.78
131.62
139.72
136.69
120.26
90.6
50.92
6.71
-35.93
-72.23
-99.95
-119.46
-132.89
-142.76
-150.84
-157.74
-163.07
-165.87
-165.03
-159.42
-148.01
-130.19
-106.13
-77.37
-46.8
-18.12
5.13
20.72
28.38
29.6
26.63
21.5
15.35
8.74
2.43
-1.84
-1.38
6.49
23.05
47.03
74.4
99.27
115.58
118.99
108.09
84.75
53.62
21.14
-5.67
-20.6
-19.87
-3.46
24.23
55.06
79.28
88.42
77.91
48.36
5.03
-44.28
-91.65
-130.99
-158.88
-174.32
-178.15
-172.39
-159.93
-144.06
-127.89
-113.46
-101.29
-90.42
-79.16
-66.12
-51.26
-36.16
-23.5
-16.02
-15.38
-21.58
-33.07
-47.23
-60.97
-71.12
-74.98
-71.18
-60.8
-48.0
-39.62
-43.07
-63.29
-99.98
-146.78
-193.09
-227.79
-243.26
-237.39
-213.09
-175.61
-129.74
-78.66
-24.78
28.4
75.23
109.12
125.42
124.45
112.45
99.8
96.73
109.01
135.65
169.81
201.69
222.52
227.58
217.41
197.42
176.37
164.22
169.42
196.18
242.21
298.56
351.74
387.84
396.84
375.38
327.04
260.43
186.45
115.63
56.51
14.51
-8.69
-15.43
-11.62
-5.24
-3.99
-13.01
-33.53
-63.08
-96.97
-130.22
-158.76
-180.12
-193.46
-199.1
-198.28
-192.79
-184.7
-176.29
-170.0
-168.11
-172.28
-182.93
-198.75
-216.73
-232.99
-243.93
-247.47
-243.5
-233.68
-220.49
-206.38
-193.05
-181.29
-171.05
-161.61
-151.63
-139.25
-122.34
-99.05
-68.46
-31.12
10.86
54.35
95.93
132.7
162.84
185.54
200.73
208.67
209.74
204.43
193.55
178.42
160.84
142.9
126.67
113.76
105.03
100.28
98.28
97.0
94.21
88.21
78.57
66.44
54.39
45.59
42.53
45.96
54.41
64.47
71.93
73.12
65.99
50.55
28.61
3.13
-22.55
-45.27
-62.44
-72.38
-74.57
-69.84
-60.32
-48.81
-38.01
-29.51
-23.11
-16.97
-8.41
4.78
23.19
45.38
68.38
88.91
104.51
114.15
118.04
116.99
111.82
103.22
91.97
79.14
66.01
53.53
41.92
30.55
18.56
5.68
-7.28
-18.48
-25.94
-28.51
-26.6
-22.06
-17.44
-14.71
-14.42
-15.59
-16.5
-16.1
-15.19
-16.81
-25.28
-44.54
-76.06
-117.64
-163.49
-205.59
-235.56
-246.73
-235.74
-203.79
-156.88
-104.73
-58.31
-26.56
-13.38
-16.29
-27.45
-36.78
-35.79
-20.47
7.9
44.01
80.89
112.29
133.94
143.97
142.46
130.96
112.06
89.12
65.82
45.64
31.44
24.79
25.52
31.91
41.17
50.47
57.9
62.99
66.58
70.19
75.1
81.62
89.16
96.69
103.7
110.9
120.34
134.57
155.09
180.76
207.04
226.9
232.91
219.91
186.74
136.46
74.77
7.84
-59.29
-123.28
-181.66
-231.87
-270.82
-295.54
-304.26
-297.37
-277.37
-248.01
-213.14
-175.76
-137.85
-100.62
-65.16
-32.69
-4.51
18.19
34.74
45.11
49.85
49.98
46.78
41.7
36.39
32.87
33.67
41.68
59.23
86.62
120.67
154.29
177.66
181.06
158.47
110.27
43.88
-28.08
-91.73
-135.83
-154.7
-148.95
-124.29
-89.33
-53.23
-23.7
-5.79
-1.32
-8.94
-24.95
-44.46
-62.53
-75.26
-80.19
-76.33
-63.85
-43.88
-18.41
9.66
36.79
59.57
75.64
84.3
86.55
84.38
80.01
75.67
73.96
78.28
92.34
118.4
155.04
196.08
231.63
251.3
248.12
220.97
174.17
114.7
48.78
-19.94
-89.74
-158.6
-222.22
-273.96
-306.91
-316.83
-304.17
-274.07
-234.35
-192.69
-154.43
-121.64
-93.68
-68.71
-45.07
-22.11
-0.24
19.64
36.86
51.37
63.86
75.18
85.76
95.17
102.26
105.63
104.43
98.79
89.86
79.45
69.3
60.55
53.48
47.71
42.5
37.34
32.18
27.4
23.57
21.02
19.53
18.36
16.49
13.1
7.89
1.1
-6.68
-14.91
-23.33
-31.89
-40.47
-48.56
-55.19
-59.18
-59.61
-56.27
-49.71
-41.15
-31.94
-23.23
-15.66
-9.41
-4.37
-0.3
3.04
5.91
8.55
11.16
13.84
16.59
19.3
21.89
24.31
26.51
28.47
30.05
31.08
31.41
31.04
30.12
28.91
27.63
26.35
24.94
23.11
20.58
17.12
12.7
7.5
1.96
-3.21
-7.14
-8.95
-8.03
-4.21
2.19
10.4
19.5
28.52
36.69
43.5
48.68
52.22
54.33
55.4
55.84
56.07
56.3
56.6
56.88
56.98
56.79
56.17
54.99
53.09
50.26
46.33
41.17
34.78
27.23
18.74
9.56
0.02
-9.59
-18.95
-27.76
-35.71
-42.64
-48.65
-54.08
-59.42
-64.87
-69.96
-73.53
-74.01
-70.19
-61.77
-49.75
-35.89
-22.09
-9.55
1.4
11.07
19.72
27.09
32.39
34.63
33.35
29.02
23.06
17.47
14.08
13.93
16.86
21.6
26.34
29.56
30.65
30.13
29.29
29.38
31.04
33.9
37.03
39.38
40.27
39.46
36.96
33.14
28.96
26.38
28.14
36.67
52.37
72.27
90.0
97.62
88.71
61.08
17.77
-34.23
-86.98
-134.38
-173.62
-204.65
-228.44
-245.36
-254.64
-254.9
-245.2
-225.73
-197.7
-162.74
-122.42
-78.28
-32.39
12.17
51.34
80.96
98.06
101.78
93.64
76.99
56.02
34.67
15.92
1.52
-7.95
-12.73
-13.09
-8.46
3.04
24.05
56.08
97.4
141.8
179.51
199.99
195.49
163.65
108.15
37.34
-38.05
-107.14
-160.44
-190.99
-195.4
-174.75
-134.84
-85.19
-36.7
1.37
23.79
30.18
24.25
12.06
-0.08
-7.34
-7.49
-0.94
9.74
21.18
30.55
36.5
39.57
41.67
45.17
51.96
62.64
76.31
90.81
103.39
111.68
114.88
114.27
112.92
114.13
119.38
126.87
131.62
127.37
109.51
77.4
34.83
-11.54
-55.02
-91.14
-118.41
-137.25
-148.27
-151.06
-144.42
-127.61
-101.85
-70.9
-40.26
-15.45
-0.11
5.06
2.07
-5.75
-15.41
-25.69
-37.33
-52.33
-72.58
-98.69
-129.31
-161.21
-189.81
-209.8
-215.88
-203.97
-172.86
-125.77
-70.61
-18.22
21.15
41.57
43.51
32.94
18.11
5.77
-0.98
-2.4
0.02
5.6
14.93
28.58
45.21
60.81
69.78
67.46
52.65
28.47
1.26
-21.82
-35.57
-38.42
-32.43
-21.94
-11.56
-4.58
-2.31
-4.16
-8.01
-10.8
-8.75
2.34
26.54
66.6
122.34
189.26
258.51
318.52
358.12
369.93
352.41
309.81
250.12
182.09
112.85
47.09
-12.43
-63.6
-103.94
-130.75
-141.76
-136.22
-115.42
-82.73
-43.24
-3.04
31.61
55.57
65.97
63.1
50.39
33.35
17.55
6.53
0.46
-3.71
-10.77
-25.34
-50.22
-85.9
-130.9
-182.39
-236.48
-288.11
-331.17
-359.18
-366.95
-352.15
-316.41
-264.8
-204.31
-141.94
-83.48
-33.13
6.13
32.26
44.48
43.68
32.86
16.75
0.86
-9.77
-11.68
-3.64
13.04
34.88
57.01
74.78
85.6
90.55
94.61
105.25
129.38
169.98
223.96
282.34
333.11
365.26
372.45
354.3
315.21
261.6
199.35
132.71
64.97
-0.22
-58.08
-103.39
-132.14
-143.14
-138.45
-122.32
-99.38
-73.31
-46.46
-20.42
3.18
22.51
35.65
40.98
37.38
24.02
0.23
-34.21
-78.67
-131.19
-188.62
-247.15
-303.08
-353.05
-393.86
-422.2
-434.77
-429.05
-404.46
-363.12
-309.47
-248.9
-186.17
-124.52
-65.95
-12.23
34.26
70.64
94.54
105.43
105.3
98.12
88.55
80.57
76.84
78.56
85.68
96.99
110.27
122.79
132.41
139.1
145.72
157.42
179.58
215.06
262.43
315.71
366.1
404.69
425.04
424.58
404.56
368.96
322.81
270.71
215.8
159.26
100.47
38.05
-28.62
-97.62
-163.51
-217.81
-251.41
-257.97
-237.04
-195.12
-143.96
-96.76
-63.69
-48.72
-49.13
-57.71
-66.32
-69.58
-66.72
-61.37
-59.6
-67.48
-89.19
-125.96
-175.72
-233.37
-291.38
-340.81
-373.02
-381.6
-364.0
-322.14
-261.71
-190.53
-116.62
-47.07
12.45
57.69
86.04
97.18
93.58
80.36
64.09
50.82
44.51
46.45
55.68
69.88
86.26
102.24
115.75
125.89
133.47
141.45
154.44
177.33
213.24
261.7
317.81
373.15
418.02
444.32
447.85
429.02
392.15
343.52
289.28
233.91
179.5
125.87
71.17
13.36
-48.19
-110.89
-168.34
-211.63
-232.49
-227.33
-199.75
-160.06
-121.71
-96.28
-89.39
-99.76
-121.25
-146.47
-169.82
-188.54
-202.23
-211.89
-219.61
-228.79
-243.77
-268.31
-303.03
-343.8
-381.82
-406.4
-408.94
-386.31
-341.79
-283.16
-219.2
-156.37
-97.22
-40.8
15.2
72.09
128.63
180.87
223.47
251.76
263.86
261.46
249.34
233.41
218.27
205.67
194.52
182.24
166.83
148.55
130.3
116.92
113.93
126.04
155.75
201.99
259.38
318.64
368.67
399.71
406.39
389.19
353.49
306.81
255.69
203.75
151.67
98.44
43.1
-13.95
-70.32
-121.6
-162.01
-185.8
-189.14
-172.04
-139.27
-99.42
-62.04
-34.57
-20.23
-18.08
-24.9
-37.43
-53.65
-72.47
-92.61
-111.92
-127.83
-138.65
-144.79
-149.06
-155.69
-168.43
-188.8
-215.28
-243.82
-269.45
-288.25
-298.65
-301.44
-298.7
-292.05
-281.31
-264.42
-238.36
-200.62
-150.53
-89.78
-22.44
45.46
106.71
153.97
181.36
186.41
171.21
142.33
108.83
79.23
58.69
47.73
42.99
39.52
33.31
22.91
9.63
-3.27
-11.75
-11.9
-0.31
25.63
67.05
122.47
186.76
250.9
303.66
334.46
336.8
310.25
260.21
195.6
125.59
57.17
-5.71
-61.5
-109.76
-150.06
-181.58
-203.14
-213.28
-210.59
-194.03
-163.82
-122.14
-73.51
-24.05
20.02
54.01
75.93
86.62
89.16
87.91
87.33
90.78
99.3
110.92
121.01
123.79
114.5
91.35
56.06
12.74
-34.51
-83.5
-134.12
-186.63
-239.24
-286.72
-321.37
-335.62
-325.1
-290.07
-234.87
-166.1
-91.11
-17.39
47.26
94.85
118.8
116.4
90.97
51.9
12.02
-16.82
-27.83
-20.97
-2.03
20.42
38.75
48.95
51.8
52.37
58.28
76.97
112.72
164.31
224.47
281.68
323.8
341.98
333.27
300.55
250.35
189.77
124.39
57.71
-7.84
-69.59
-123.93
-166.63
-193.77
-202.66
-192.57
-164.87
-122.93
-71.86
-17.79
33.16
76.1
107.99
127.87
136.18
134.11
122.88
103.86
78.72
49.49
18.32
-13.22
-44.82
-77.76
-114.49
-157.22
-206.12
-257.9
-305.71
-340.77
-355.14
-344.38
-308.91
-253.49
-185.35
-112.25
-41.14
22.05
72.08
104.63
117.16
110.18
87.87
57.45
27.06
3.29
-10.78
-15.76
-15.1
-12.95
-11.93
-11.85
-9.42
0.58
23.6
63.1
118.84
185.95
255.37
315.88
356.99
372.01
359.83
324.71
274.1
215.57
154.33
92.49
30.32
-31.6
-90.62
-141.65
-178.47
-195.97
-191.98
-168.21
-129.89
-84.43
-39.81
-2.8
22.15
33.49
32.64
23.37
10.76
-0.41
-7.07
-8.91
-8.56
-10.65
-20.29
-41.26
-74.75
-118.96
-169.5
-220.29
-264.66
-296.3
-310.32
-304.2
-278.35
-236.05
-182.62
-124.15
-66.31
-13.75
29.85
61.6
79.51
82.99
73.62
55.3
33.72
14.89
3.4
1.11
6.91
17.47
28.47
36.17
38.74
37.0
34.52
36.98
50.76
80.82
128.35
189.18
253.85
309.84
345.48
353.78
334.48
293.46
239.56
180.74
121.36
61.92
1.18
-60.86
-120.81
-171.88
-205.81
-215.83
-199.15
-158.09
-99.56
-33.35
30.1
82.08
116.93
132.66
130.57
114.38
89.18
60.33
32.5
8.77
-9.95
-25.18
-40.38
-59.84
-86.79
-121.91
-162.66
-203.97
-239.97
-265.73
-278.28
-276.77
-262.12
-236.7
-204.19
-169.3
-136.93
-110.87
-92.56
-80.83
-72.97
-66.57
-60.95
-57.32
-57.28
-60.81
-65.03
-64.78
-54.64
-31.25
5.25
51.24
100.66
146.65
182.92
204.76
210.19
201.02
183.33
166.38
159.68
168.86
192.74
223.16
248.13
256.95
244.51
212.36
166.36
112.79
55.54
-3.82
-63.78
-120.51
-167.43
-197.34
-205.85
-193.72
-166.81
-133.59
-102.08
-77.61
-62.51
-56.9
-59.92
-70.19
-85.48
-102.5
-117.48
-127.73
-133.14
-136.68
-143.28
-157.56
-181.24
-212.02
-244.25
-271.07
-286.9
-288.91
-277.03
-252.81
-218.08
-174.21
-122.38
-64.35
-3.16
56.91
111.11
155.34
187.27
206.87
216.12
218.17
216.25
212.78
209.01
205.18
201.03
196.45
191.73
187.59
184.73
183.33
182.78
181.76
178.7
172.4
162.53
149.68
134.98
119.56
104.13
88.65
72.5
54.65
34.17
10.67
-15.11
-40.83
-62.53
-75.4
-75.43
-61.41
-36.39
-7.58
15.46
24.02
13.29
-15.84
-57.02
-100.48
-136.02
-155.87
-156.49
-139.01
-108.39
-71.78
-36.49
-8.24
9.92
17.76
17.26
11.53
3.93
-2.56
-5.38
-2.56
7.02
23.05
43.4
64.26
81.08
89.94
89.02
79.27
64.16
48.48
36.85
32.54
36.89
49.38
68.12
90.2
112.09
130.03
140.43
140.37
128.11
103.19
66.17
18.24
-38.75
-101.82
-166.18
-225.09
-270.81
-296.72
-299.62
-281.34
-248.51
-210.47
-176.22
-151.65
-138.3
-133.88
-134.03
-134.32
-131.53
-123.94
-110.92
-92.43
-68.94
-41.54
-12.0
17.57
45.45
71.03
95.07
119.06
144.34
171.42
199.87
228.81
257.36
284.59
309.01
328.04
338.1
335.6
318.35
286.54
242.6
190.19
132.84
73.37
14.05
-42.67
-93.66
-135.37
-164.56
-179.32
-179.4
-166.1
-141.63
-108.65
-70.16
-29.68
8.69
40.68
62.84
73.67
74.23
67.88
58.95
50.91
44.89
39.24
30.26
13.87
-12.86
-50.93
-99.19
-154.7
-213.0
-268.25
-313.74
-342.88
-350.96
-336.71
-303.08
-256.54
-205.05
-155.81
-113.61
-80.46
-56.32
-40.26
-31.33
-28.9
-32.26
-39.99
-49.48
-56.87
-57.72
-48.41
-27.92
1.17
33.11
61.05
80.14
89.98
95.16
103.52
123.04
158.75
210.98
275.13
342.95
404.51
450.41
473.82
471.98
446.66
403.38
349.34
291.1
232.73
175.3
117.74
58.56
-2.39
-62.74
-117.42
-159.71
-183.44
-185.62
-168.19
-138.12
-105.21
-78.23
-61.95
-56.09
-57.2
-62.03
-70.26
-84.93
-110.48
-149.82
-202.31
-263.5
-326.4
-383.33
-427.39
-453.46
-458.67
-442.73
-407.82
-358.13
-298.73
-234.19
-167.67
-100.88
-35.08
27.65
83.62
128.09
156.88
168.29
164.37
150.71
134.67
122.78
118.28
120.01
123.43
123.03
115.53
102.02
87.99
81.42
89.76
117.26
163.63
224.06
290.42
353.13
403.08
433.46
440.98
426.3
393.38
347.87
295.19
238.95
180.47
119.35
55.01
-11.55
-76.54
-133.23
-173.45
-190.55
-182.59
-154.33
-116.64
-83.03
-64.34
-64.54
-79.63
-100.43
-117.86
-127.68
-132.23
-138.42
-153.63
-182.07
-223.31
-273.12
-325.37
-373.7
-412.3
-436.16
-441.44
-426.11
-390.63
-338.21
-273.91
-203.28
-131.16
-61.27
3.21
58.99
102.77
132.16
146.87
149.39
144.46
137.55
133.18
133.61
138.33
144.56
148.4
146.52
137.85
124.58
112.16
107.85
118.33
147.18
193.26
250.61
310.12
361.99
398.14
413.84
408.08
383.06
343.05
293.15
238.06
181.01
123.38
64.9
4.91
-56.13
-115.26
-166.7
-203.24
-218.86
-211.74
-185.83
-150.24
-116.3
-93.51
-86.42
-93.82
-110.39
-129.73
-147.15
-161.07
-172.77
-185.32
-202.39
-227.22
-261.63
-304.81
-352.5
-397.21
-429.83
-442.47
-431.32
-397.78
-347.66
-288.54
-226.89
-166.3
-107.53
-50.2
5.35
56.86
100.49
132.25
149.96
154.65
150.69
144.61
142.81
149.01
162.75
179.73
193.89
200.28
197.48
188.43
179.21
176.91
187.23
213.01
253.58
304.88
360.13
410.93
448.91
467.7
464.35
439.94
398.68
346.01
286.9
224.71
161.13
96.86
32.58
-30.07
-87.84
-136.15
-170.31
-187.44
-188.24
-177.49
-162.8
-151.58
-148.03
-151.82
-159.23
-166.19
-171.36
-177.39
-189.59
-212.96
-249.21
-295.47
-344.84
-388.69
-419.09
-430.74
-422.03
-394.55
-351.93
-298.26
-237.08
-171.22
-103.59
-38.09
20.13
65.53
94.1
105.14
101.84
90.21
76.88
66.71
61.67
61.24
63.75
67.92
73.47
80.96
90.88
103.23
117.61
133.87
152.82
176.55
208.1
250.15
303.18
363.86
424.67
475.36
506.09
510.89
489.68
447.98
394.28
336.45
279.27
223.98
169.62
114.99
59.91
5.45
-46.7
-94.86
-137.76
-174.49
-204.48
-227.64
-244.35
-255.08
-260.19
-259.93
-255.08
-248.0
-242.99
-245.52
-260.35
-289.2
-329.38
-374.05
-414.18
-441.26
-449.64
-437.65
-407.31
-363.12
-310.18
-252.77
-193.45
-133.12
-71.91
-10.54
48.53
100.87
141.15
165.25
172.17
164.9
149.6
133.35
121.57
116.17
115.39
115.14
111.51
102.71
90.19
78.26
72.48
77.75
96.8
129.8
174.76
228.18
285.55
341.38
389.33
422.77
436.35
427.43
397.11
349.9
291.92
228.67
163.26
96.7
29.76
-34.54
-89.96
-128.7
-145.18
-139.86
-120.56
-100.16
-91.26
-100.65
-126.36
-159.52
-189.5
-209.74
-220.63
-228.28
-240.31
-261.35
-290.84
-323.85
-353.8
-375.11
-384.42
-380.72
-364.37
-336.35
-297.91
-250.65
-196.47
-137.4
-75.29
-11.8
51.04
110.4
162.43
202.94
228.64
238.39
233.93
219.52
200.53
181.79
166.16
153.99
143.75
133.38
121.84
110.26
102.09
102.31
115.54
144.19
186.9
238.33
290.41
334.7
364.73
377.44
373.17
354.48
324.57
286.23
241.45
191.7
138.23
82.2
24.73
-32.85
-88.24
-137.41
-174.62
-193.8
-191.21
-168.09
-131.54
-92.97
-64.0
-52.07
-57.63
-74.76
-94.67
-110.23
-119.09
-124.05
-130.74
-144.6
-168.63
-203.16
-246.71
-296.8
-349.79
-400.45
-441.7
-465.91
-467.2
-443.77
-398.82
-339.37
-273.43
-207.13
-143.38
-82.58
-24.83
28.11
72.41
103.64
119.24
120.34
112.02
101.51
95.57
98.12
109.2
125.65
142.92
157.06
166.13
170.73
173.65
179.0
191.0
212.5
243.7
281.37
319.25
349.58
365.17
361.49
337.69
296.31
241.78
178.83
111.43
42.75
-24.07
-85.34
-136.76
-174.29
-195.44
-200.31
-191.87
-175.19
-156.07
-139.64
-129.24
-126.17
-129.99
-139.14
-151.39
-164.04
-173.93
-177.51
-171.37
-153.58
-125.04
-90.48
-57.59
-34.5
-26.35
-32.88
-48.24
-63.52
-70.56
-65.1
-47.73
-22.3
6.7
36.19
64.9
92.06
116.0
133.56
141.12
136.44
120.1
95.65
68.66
44.86
28.4
20.76
20.49
23.85
26.22
23.67
14.66
1.11
-11.91
-17.65
-9.68
16.09
60.2
119.27
186.1
250.76
302.28
331.25
332.28
305.79
257.84
198.06
136.25
79.24
29.09
-16.6
-62.64
-113.17
-169.06
-226.55
-277.92
-313.83
-326.56
-312.81
-274.91
-219.99
-157.31
-95.57
-40.78
4.8
42.25
74.79
105.87
137.12
166.96
190.53
201.12
192.76
162.7
113.0
50.4
-15.03
-72.14
-111.17
-126.07
-116.19
-86.87
-48.27
-12.54
9.86
13.3
-1.97
-30.92
-66.23
-100.63
-128.31
-145.27
-149.19
-139.45
-117.32
-85.94
-49.75
-13.47
19.08
46.07
68.23
88.78
112.52
144.05
185.68
235.58
287.37
331.68
359.16
363.85
345.09
307.37
257.93
203.59
148.5
93.71
38.75
-16.33
-69.44
-116.46
-152.67
-174.56
-181.18
-174.32
-157.7
-135.76
-112.63
-91.73
-75.69
-66.6
-65.76
-73.09
-86.56
-101.97
-113.91
-117.34
-109.7
-92.18
-69.93
-50.69
-42.27
-49.85
-73.92
-109.74
-148.56
-180.27
-196.53
-193.27
-171.7
-137.22
-97.24
-58.58
-25.89
-1.5
13.74
19.47
15.62
2.98
-15.72
-35.63
-50.74
-55.8
-48.2
-28.89
-1.72
28.12
55.88
78.33
94.23
104.32
111.17
118.81
131.75
153.47
184.66
222.09
258.95
286.87
298.81
291.56
266.59
228.94
184.91
139.8
96.76
56.97
20.71
-11.49
-38.31
-57.95
-68.98
-71.35
-66.83
-58.89
-51.79
-49.38
-53.82
-64.77
-79.4
-93.27
-101.98
-102.88
-96.27
-85.41
-75.56
-72.34
-80.08
-100.78
-133.57
-174.91
-219.04
-258.8
-286.97
-297.8
-288.56
-260.3
-217.53
-166.86
-115.29
-68.71
-31.09
-4.54
10.6
15.49
12.67
5.86
-0.78
-3.57
-0.29
9.43
24.45
42.91
62.89
82.61
100.3
114.2
123.16
127.59
130.19
135.63
148.87
172.77
206.05
243.07
275.29
294.32
294.61
274.89
237.92
188.92
133.74
77.57
24.48
-22.5
-60.98
-89.06
-105.37
-109.43
-102.05
-85.79
-64.9
-44.59
-29.77
-23.52
-26.14
-35.33
-47.55
-59.94
-71.75
-84.43
-100.62
-122.57
-151.11
-185.49
-223.7
-262.9
-299.37
-328.39
-344.56
-342.88
-320.4
-277.62
-218.94
-151.71
-84.35
-24.51
22.14
52.34
65.23
62.32
47.32
25.78
4.19
-11.25
-15.95
-7.71
13.1
44.02
81.27
120.43
157.12
187.49
208.98
221.01
225.38
226.15
228.67
238.04
257.21
285.58
318.63
349.01
368.76
372.0
356.71
324.96
281.58
231.81
179.21
124.8
67.67
6.9
-56.35
-117.65
-169.9
-205.57
-219.66
-212.01
-187.74
-155.56
-124.53
-100.97
-86.89
-80.8
-79.92
-82.52
-89.11
-101.87
-123.05
-153.43
-191.64
-234.37
-277.03
-314.45
-341.47
-353.61
-347.74
-322.8
-280.05
-223.03
-157.06
-88.69
-25.12
26.68
61.06
75.19
70.08
50.6
24.15
-1.62
-21.04
-31.57
-33.49
-28.61
-18.89
-5.85
9.27
25.03
39.86
52.99
65.56
80.93
103.49
136.19
177.96
222.71
260.7
281.8
279.33
252.51
206.44
149.86
92.0
39.79
-3.25
-36.67
-61.79
-80.42
-94.01
-103.39
-108.98
-111.08
-110.17
-106.96
-102.44
-97.5
-92.8
-88.56
-84.47
-79.79
-73.51
-64.31
-50.76
-31.88
-8.06
18.1
41.72
56.96
59.36
48.25
27.79
5.8
-9.37
-12.4
-3.05
14.28
33.25
48.84
59.24
65.61
70.11
73.69
75.19
72.07
62.2
45.49
24.29
2.56
-15.91
-28.83
-35.93
-38.21
-36.89
-32.66
-25.52
-15.3
-1.96
14.61
35.16
61.43
95.47
138.05
186.92
236.17
277.32
302.0
304.79
284.92
245.88
193.57
134.28
73.36
15.23
-36.1
-76.78
-103.7
-115.4
-112.82
-99.18
-79.01
-56.79
-35.98
-18.75
-6.24
0.75
1.62
-3.43
-12.72
-22.56
-28.16
-25.47
-13.51
4.31
20.79
27.37
17.32
-11.98
-58.42
-116.17
-177.24
-233.19
-276.2
-300.17
-301.65
-280.75
-241.21
-189.51
-133.16
-78.9
-31.74
5.03
29.48
40.71
39.25
27.34
8.95
-10.88
-27.27
-36.49
-36.55
-27.22
-9.95
12.57
36.98
60.29
81.38
101.81
125.56
157.23
199.31
249.84
301.99
345.88
372.03
374.91
354.62
316.25
267.3
214.56
161.91
109.93
57.02
1.38
-57.27
-116.82
-172.87
-219.71
-251.84
-265.42
-259.6
-237.04
-203.47
-166.25
-132.37
-106.58
-90.5
-82.8
-80.33
-79.53
-77.8
-74.35
-70.7
-70.5
-78.57
-98.98
-132.79
-176.12
-220.08
-253.08
-264.93
-250.97
-214.08
-163.42
-110.54
-64.87
-30.86
-7.98
7.02
17.2
23.7
26.06
23.87
18.44
13.24
12.65
20.02
36.25
59.63
86.92
114.67
140.24
161.9
178.78
190.92
199.73
208.27
220.8
241.27
271.2
308.13
345.65
375.28
389.45
384.03
359.35
319.39
269.68
215.39
159.97
105.06
50.97
-2.7
-56.48
-110.38
-163.31
-212.51
-253.53
-281.16
-291.28
-282.83
-258.94
-226.47
-193.85
-168.25
-153.29
-148.3
-149.37
-151.42
-150.28
-143.88
-132.41
-117.87
-103.58
-93.77
-92.97
-104.9
-130.79
-167.74
-208.38
-242.34
-259.38
-252.94
-222.42
-173.04
-113.62
-53.34
0.65
44.08
74.93
92.46
96.77
89.2
72.95
53.11
35.63
25.63
25.77
35.69
52.64
72.87
93.0
110.97
126.17
139.41
152.96
170.25
195.12
230.18
274.9
324.46
370.28
402.49
413.36
399.98
364.81
314.1
