1580418138.00
64.000000
-0.00
-0.00
-0.00
-0.00
-0.00
-0.00
-0.00
-0.00
-0.00
-0.00
0.00
0.01
0.01
-0.00
-0.03
-0.05
-0.05
0.00
0.13
0.36
0.66
1.01
1.37
1.72
2.06
2.40
2.79
3.24
3.80
4.42
5.06
5.67
6.21
6.69
7.15
7.67
8.30
9.14
10.10
11.07
11.94
12.62
13.15
13.66
14.38
15.47
17.20
19.42
21.89
24.29
26.44
28.36
30.35
32.82
36.12
40.67
46.15
52.07
57.82
62.97
67.50
71.83
76.64
82.53
90.13
99.06
108.57
117.69
125.71
132.41
138.28
144.61
150.28
157.84
168.17
181.51
196.54
209.98
217.06
212.79
193.76
159.40
112.65
57.92
-0.18
-58.58
-116.32
-173.88
-231.96
-290.35
-347.76
-401.94
-451.15
-494.22
-530.64
-560.01
-581.71
-594.81
-598.35
-591.84
-574.91
-547.46
-508.81
-457.89
-393.87
-317.37
-231.27
-140.65
-51.69
30.03
100.68
158.72
204.43
238.88
263.26
278.65
286.20
287.37
283.93
277.52
269.28
259.70
248.74
236.18
222.00
206.61
190.74
175.23
160.71
147.46
135.36
124.05
113.10
102.24
91.41
80.80
70.74
61.55
53.41
46.25
39.78
33.63
27.56
21.55
15.83
10.81
6.70
3.55
1.20
-0.61
-2.11
-3.42
-4.60
-5.61
-6.41
-7.00
-7.39
-7.57
-7.57
-7.43
-7.21
-6.96
-6.73
-6.57
-6.46
-6.38
-6.26
-6.09
-5.84
-5.56
-5.27
-5.02
-4.83
-4.72
-4.69
-4.72
-4.73
-4.59
-4.17
-3.44
-2.49
-1.55
-0.87
-0.60
-0.76
-1.22
-1.77
-2.28
-2.67
-2.96
-3.20
-3.37
-3.47
-3.47
-3.42
-3.35
-3.30
-3.23
-3.05
-2.71
-2.17
-1.49
-0.76
-0.07
0.50
0.94
1.22
1.33
1.28
1.10
0.84
0.60
0.42
0.32
0.29
0.32
0.42
0.59
0.85
1.15
1.44
1.68
1.88
2.08
2.34
2.68
3.07
3.44
3.73
3.93
4.11
4.29
4.46
4.49
4.23
3.56
2.49
1.22
-0.09
-1.25
-2.21
-3.04
-3.83
-4.65
-5.47
-6.15
-6.57
-6.63
-6.31
-5.69
-4.89
-4.03
-3.22
-2.57
-2.16
-2.02
-2.13
-2.40
-2.70
-2.90
-2.93
-2.78
-2.54
-2.32
-2.22
-2.22
-2.25
-2.20
-1.98
-1.61
-1.19
-0.86
-0.70
-0.70
-0.82
-0.95
-1.06
-1.15
-1.24
-1.37
-1.51
-1.63
-1.72
-1.79
-1.90
-2.04
-2.21
-2.33
-2.36
-2.27
-2.10
-1.89
-1.71
-1.53
-1.28
-0.87
-0.24
0.59
1.52
2.42
3.19
3.67
3.84
3.73
3.43
3.03
2.63
2.30
2.08
1.97
1.92
1.90
1.83
1.69
1.50
1.30
1.17
1.13
1.19
1.32
1.47
1.58
1.60
1.47
1.15
0.63
-0.08
-0.89
-1.71
-2.43
-2.98
-3.35
-3.61
-3.87
-4.22
-4.73
-5.38
-6.09
-6.69
-7.02
-6.96
-6.44
-5.51
-4.23
-2.76
-1.23
0.24
1.57
2.71
3.65
4.36
4.84
5.05
5.01
4.77
4.41
4.03
3.70
3.50
3.43
3.48
3.57
3.63
3.59
3.40
3.11
2.76
2.44
2.18
1.98
1.79
1.57
1.27
0.92
0.56
0.25
0.00
-0.21
-0.48
-0.91
-1.58
-2.52
-3.65
-4.84
-5.89
-6.62
-6.85
-6.55
-5.74
-4.58
-3.28
-2.04
-0.98
-0.13
0.59
1.27
1.96
2.65
3.26
3.70
3.92
3.96
3.88
3.80
3.78
3.80
3.83
3.80
3.68
3.54
3.43
3.46
3.63
3.87
3.99
3.84
3.30
2.43
1.37
0.33
-0.53
-1.15
-1.56
-1.85
-2.13
-2.43
-2.79
-3.23
-3.80
-4.49
-5.27
-5.95
-6.32
-6.15
-5.36
-4.03
-2.42
-0.84
0.45
1.32
1.80
1.99
2.03
2.01
1.96
1.90
1.83
1.77
1.76
1.79
1.83
1.81
1.68
1.45
1.21
1.10
1.19
1.47
1.82
2.09
2.12
1.85
1.33
0.69
0.08
-0.40
-0.73
-1.00
-1.34
-1.88
-2.68
-3.70
-4.85
-5.95
-6.89
-7.54
-7.83
-7.72
-7.21
-6.33
-5.20
-3.97
-2.77
-1.70
-0.79
-0.02
0.59
1.04
1.33
1.49
1.57
1.68
1.85
2.07
2.24
2.29
2.20
2.03
1.88
1.84
1.88
1.95
1.98
1.96
1.96
2.08
2.35
2.66
2.80
2.58
1.89
0.83
-0.34
-1.34
-2.02
-2.41
-2.70
-3.08
-3.65
-4.32
-4.87
-5.05
-4.73
-3.90
-2.74
-1.44
-0.20
0.86
1.73
2.40
2.91
3.27
3.48
3.58
3.60
3.56
3.50
3.42
3.33
3.24
3.13
3.03
2.93
2.86
2.84
2.89
3.00
3.15
3.28
3.28
3.09
2.69
2.12
1.47
0.82
0.22
-0.34
-0.92
-1.59
-2.36
-3.20
-3.97
-4.51
-4.72
-4.52
-3.94
-3.07
-2.02
-0.88
0.25
1.33
2.27
3.00
3.44
3.57
3.42
3.09
2.71
2.36
2.06
1.74
1.32
0.77
0.16
-0.35
-0.58
-0.45
-0.00
0.58
1.05
1.21
1.01
0.52
-0.10
-0.72
-1.29
-1.82
-2.38
-3.05
-3.84
-4.74
-5.67
-6.55
-7.25
-7.65
-7.63
-7.12
-6.15
-4.84
-3.37
-1.97
-0.79
0.11
0.76
1.23
1.62
1.94
2.17
2.24
2.11
1.77
1.28
0.75
0.30
0.01
-0.05
0.10
0.40
0.78
1.13
1.37
1.43
1.26
0.88
0.30
-0.40
-1.15
-1.87
-2.47
-2.90
-3.17
-3.33
-3.48
-3.71
-4.05
-4.44
-4.76
-4.87
-4.69
-4.16
-3.32
-2.24
-1.03
0.19
1.33
2.25
2.86
3.15
3.18
3.05
2.93
2.89
2.98
3.14
3.27
3.27
3.11
2.76
2.30
1.84
1.46
1.24
1.16
1.17
1.18
1.09
0.86
0.49
0.01
-0.53
-1.10
-1.71
-2.41
-3.23
-4.16
-5.08
-5.83
-6.22
-6.17
-5.69
-4.89
-3.94
-2.96
-2.06
-1.24
-0.52
0.04
0.40
0.53
0.48
0.32
0.14
-0.02
-0.21
-0.48
-0.87
-1.34
-1.84
-2.25
-2.52
-2.63
-2.59
-2.46
-2.29
-2.12
-1.98
-1.82
-1.58
-1.16
-0.50
0.39
1.35
2.18
2.68
2.76
2.46
1.91
1.28
0.69
0.21
-0.11
-0.22
-0.07
0.40
1.16
2.14
3.18
4.10
4.80
5.23
5.41
5.41
5.30
5.10
4.86
4.62
4.43
4.36
4.39
4.48
4.49
4.33
3.98
3.55
3.21
3.11
3.28
3.60
3.89
3.97
3.75
3.23
2.47
1.57
0.60
-0.37
-1.29
-2.12
-2.84
-3.47
-4.07
-4.68
-5.29
-5.86
-6.35
-6.67
-6.80
-6.71
-6.38
-5.79
-4.93
-3.79
-2.46
-1.06
0.24
1.28
2.00
2.44
2.70
2.92
3.19
3.48
3.72
3.81
3.71
3.48
3.20
2.99
2.91
2.95
3.07
3.21
3.33
3.40
3.42
3.35
3.19
2.89
2.47
1.91
1.28
0.62
-0.03
-0.67
-1.33
-2.04
-2.80
-3.59
-4.31
-4.90
-5.35
-5.67
-5.87
-5.93
-5.78
-5.31
-4.46
-3.30
-1.99
-0.75
0.29
1.09
1.71
2.28
2.86
3.46
4.00
4.38
4.53
4.47
4.24
3.93
3.64
3.45
3.43
3.56
3.82
4.12
4.39
4.57
4.62
4.56
4.40
4.17
3.90
3.62
3.35
3.08
2.82
2.53
2.18
1.73
1.20
0.60
-0.05
-0.74
-1.47
-2.26
-3.07
-3.80
-4.36
-4.67
-4.69
-4.42
-3.92
-3.24
-2.41
-1.53
-0.67
0.04
0.50
0.67
0.57
0.28
-0.10
-0.51
-0.90
-1.24
-1.46
-1.49
-1.26
-0.73
0.08
1.07
2.10
3.02
3.69
4.03
4.01
3.65
2.99
2.14
1.21
0.34
-0.39
-0.94
-1.36
-1.77
-2.30
-3.07
-4.08
-5.21
-6.23
-6.92
-7.12
-6.78
-5.97
-4.83
-3.44
-1.88
-0.19
1.50
2.99
4.03
4.51
4.44
4.03
3.52
3.10
2.82
2.59
2.31
1.94
1.53
1.17
0.93
0.80
0.72
0.62
0.46
0.25
0.00
-0.25
-0.54
-0.87
-1.27
-1.70
-2.12
-2.47
-2.76
-3.01
-3.33
-3.80
-4.46
-5.26
-6.07
-6.71
-7.04
-6.96
-6.49
-5.67
-4.59
-3.34
-1.99
-0.64
0.61
1.67
2.44
2.90
3.08
3.07
2.99
2.96
3.01
3.13
3.26
3.34
3.34
3.24
3.06
2.80
2.46
2.05
1.61
1.17
0.79
0.47
0.17
-0.18
-0.64
-1.19
-1.80
-2.42
-3.04
-3.71
-4.46
-5.29
-6.13
-6.83
-7.23
-7.23
-6.81
-6.09
-5.24
-4.39
-3.64
-2.97
-2.30
-1.58
-0.87
-0.29
-0.01
-0.11
-0.55
-1.17
-1.73
-2.09
-2.18
-2.07
-1.86
-1.65
-1.43
-1.13
-0.68
-0.07
0.67
1.41
2.03
2.40
2.51
2.39
2.11
1.74
1.33
0.88
0.38
-0.10
-0.47
-0.60
-0.42
0.10
0.86
1.73
2.55
3.27
3.85
4.33
4.73
5.07
5.29
5.37
5.26
4.98
4.57
4.13
3.72
3.39
3.12
2.85
2.55
2.17
1.70
1.17
0.62
0.11
-0.30
-0.56
-0.69
-0.76
-0.88
-1.16
-1.67
-2.39
-3.23
-4.05
-4.69
-5.00
-4.88
-4.35
-3.49
-2.44
-1.35
-0.33
0.60
1.42
2.12
2.66
3.00
3.11
3.01
2.79
2.53
2.31
2.17
2.10
2.09
2.10
2.12
2.12
2.06
1.93
1.73
1.48
1.18
0.86
0.54
0.26
0.02
-0.19
-0.44
-0.83
-1.45
-2.30
-3.28
-4.22
-4.93
-5.24
-5.10
-4.52
-3.61
-2.48
-1.32
-0.25
0.60
1.19
1.56
1.81
2.04
2.30
2.58
2.83
2.96
2.94
2.79
2.58
2.37
2.20
2.07
1.93
1.78
1.62
1.51
1.49
1.54
1.59
1.49
1.16
0.56
-0.19
-0.91
-1.43
-1.68
-1.72
-1.73
-1.90
-2.34
-3.00
-3.71
-4.30
-4.59
-4.56
-4.22
-3.62
-2.78
-1.71
-0.43
0.92
2.15
3.06
3.52
3.57
3.34
2.98
2.64
2.38
2.22
2.17
2.22
2.34
2.50
2.58
2.56
2.43
2.27
2.16
2.14
2.13
2.03
1.73
1.21
0.54
-0.15
-0.74
-1.16
-1.46
-1.71
-2.03
-2.48
-3.07
-3.76
-4.49
-5.18
-5.80
-6.29
-6.61
-6.66
-6.39
-5.76
-4.83
-3.73
-2.59
-1.48
-0.42
0.63
1.66
2.60
3.31
3.69
3.73
3.57
3.36
3.23
3.24
3.33
3.45
3.54
3.64
3.75
3.87
3.96
3.95
3.85
3.69
3.55
3.47
3.41
3.26
2.94
2.43
1.76
1.02
0.28
-0.48
-1.28
-2.12
-2.98
-3.76
-4.40
-4.93
-5.38
-5.82
-6.18
-6.36
-6.19
-5.58
-4.59
-3.37
-2.13
-0.99
-0.00
0.91
1.79
2.65
3.41
3.94
4.21
4.23
4.13
4.02
3.95
3.91
3.84
3.68
3.44
3.17
2.97
2.88
2.88
2.91
2.89
2.76
2.52
2.18
1.79
1.38
0.93
0.45
-0.07
-0.60
-1.12
-1.61
-2.11
-2.67
-3.32
-4.07
-4.87
-5.61
-6.16
-6.41
-6.29
-5.79
-4.95
-3.84
-2.57
-1.27
-0.07
0.96
1.81
2.47
2.97
3.28
3.35
3.13
2.64
2.02
1.44
1.08
1.02
1.26
1.66
2.11
2.50
2.77
2.93
2.99
2.94
2.73
2.32
1.73
1.02
0.31
-0.32
-0.84
-1.28
-1.74
-2.31
-3.05
-3.94
-4.90
-5.83
-6.58
-7.02
-7.03
-6.54
-5.53
-4.09
-2.42
-0.73
0.78
1.99
2.87
3.45
3.82
4.03
4.11
4.09
3.96
3.74
3.45
3.13
2.83
2.61
2.51
2.56
2.74
3.00
3.26
3.44
3.49
3.40
3.16
2.81
2.36
1.81
1.16
0.44
-0.30
-0.99
-1.61
-2.18
-2.77
-3.47
-4.30
-5.20
-6.00
-6.48
-6.45
-5.81
-4.62
-3.08
-1.45
0.02
1.16
1.97
2.55
3.05
3.59
4.20
4.78
5.19
5.31
5.08
4.53
3.82
3.14
2.65
2.43
2.47
2.63
2.75
2.69
2.37
1.84
1.19
0.53
-0.03
-0.48
-0.86
-1.25
-1.69
-2.22
-2.82
-3.47
-4.12
-4.76
-5.34
-5.82
-6.13
-6.19
-5.89
-5.20
-4.08
-2.60
-0.89
0.82
2.29
3.32
3.84
3.92
3.74
3.52
3.38
3.32
3.22
2.97
2.55
2.05
1.66
1.50
1.62
1.93
2.26
2.50
2.58
2.53
2.37
2.16
1.88
1.55
1.19
0.86
0.59
0.36
0.08
-0.37
-1.04
-1.93
-2.91
-3.86
-4.65
-5.20
-5.49
-5.46
-5.11
-4.43
-3.47
-2.37
-1.28
-0.31
0.48
1.11
1.64
2.10
2.48
2.70
2.66
2.33
1.79
1.20
0.76
0.59
0.68
0.86
0.97
0.88
0.63
0.32
0.05
-0.19
-0.51
-1.03
-1.74
-2.52
-3.17
-3.56
-3.70
-3.74
-3.88
-4.28
-4.98
-5.90
-6.93
-7.89
-8.64
-8.99
-8.82
-8.04
-6.71
-4.99
-3.11
-1.29
0.31
1.57
2.47
3.01
3.24
3.19
2.94
2.54
2.05
1.55
1.13
0.89
0.91
1.21
1.69
2.18
2.52
2.59
2.43
2.14
1.85
1.62
1.44
1.20
0.81
0.24
-0.52
-1.41
-2.39
-3.40
-4.44
-5.48
-6.48
-7.38
-8.12
-8.63
-8.83
-8.69
-8.18
-7.33
-6.18
-4.84
-3.43
-2.08
-0.91
0.02
0.66
0.99
1.04
0.85
0.50
0.11
-0.22
-0.46
-0.60
-0.70
-0.82
-0.96
-1.03
-0.94
-0.57
0.16
1.25
2.66
4.34
6.17
8.03
9.78
11.23
12.22
12.65
12.47
11.73
10.55
9.12
7.59
6.12
4.79
3.66
2.76
2.16
1.93
2.10
2.60
3.31
4.02
4.57
4.89
5.00
5.00
4.97
4.97
4.93
4.79
4.48
4.03
3.51
3.05
2.73
2.57
2.50
2.38
2.08
1.50
0.69
-0.29
-1.30
-2.27
-3.21
-4.15
-5.13
-6.14
-7.13
-8.06
-8.93
-9.78
-10.70
-11.70
-12.77
-13.79
-14.57
-14.96
-14.79
-13.95
-12.34
-9.96
-6.94
-3.57
-0.22
2.77
5.13
6.78
7.80
8.33
8.53
8.51
8.33
8.03
7.63
7.14
6.55
5.85
5.03
4.11
3.14
2.20
1.33
0.55
-0.14
-0.77
-1.35
-1.91
-2.44
-2.93
-3.35
-3.68
-3.91
-4.04
-4.09
-4.13
-4.23
-4.42
-4.66
-4.89
-4.99
-4.87
-4.48
-3.86
-3.08
-2.20
-1.24
-0.21
0.86
1.88
2.72
3.23
3.32
3.02
2.47
1.87
1.37
1.08
1.00
1.08
1.22
1.37
1.44
1.37
1.09
0.59
-0.12
-0.90
-1.62
-2.11
-2.27
-2.10
-1.72
-1.31
-1.06
-1.09
-1.48
-2.19
-3.15
-4.23
-5.29
-6.21
-6.84
-7.07
-6.86
-6.23
-5.29
-4.18
-3.03
-1.89
-0.77
0.37
1.54
2.68
3.66
4.33
4.54
4.28
3.62
2.79
2.03
1.56
1.45
1.64
1.98
2.31
2.51
2.57
2.54
2.47
2.40
2.29
2.09
1.77
1.30
0.70
0.01
-0.75
-1.55
-2.34
-3.02
-3.50
-3.68
-3.48
-2.89
-1.94
-0.73
0.60
1.90
3.04
3.89
4.39
4.55
4.41
4.08
3.66
3.24
2.87
2.55
2.27
2.05
1.91
1.92
2.07
2.33
2.60
2.75
2.68
2.34
1.73
0.93
0.04
-0.86
-1.71
-2.50
-3.26
-4.05
-4.94
-5.93
-6.95
-7.83
-8.37
-8.40
-7.83
-6.69
-5.13
-3.37
-1.64
-0.10
1.18
2.22
3.09
3.86
4.51
4.98
5.17
5.03
4.60
4.01
3.43
2.99
2.74
2.62
2.52
2.32
2.03
1.71
1.49
1.45
1.59
1.78
1.85
1.67
1.20
0.51
-0.28
-1.09
-1.89
-2.69
-3.56
-4.51
-5.45
-6.26
-6.80
-6.97
-6.77
-6.26
-5.56
-4.80
-4.09
-3.45
-2.94
-2.59
-2.43
-2.52
-2.84
-3.32
-3.80
-4.13
-4.21
-4.02
-3.66
-3.22
-2.83
-2.51
-2.23
-1.94
-1.60
-1.20
-0.80
-0.44
-0.19
-0.07
-0.05
-0.10
-0.20
-0.35
-0.57
-0.89
-1.26
-1.55
-1.54
-1.02
0.11
1.78
3.74
5.66
7.27
8.49
9.40
10.14
10.81
11.39
11.74
11.69
11.15
10.22
9.08
7.95
6.99
6.23
5.63
5.11
4.60
4.07
3.47
2.81
2.10
1.38
0.72
0.20
-0.15
-0.39
-0.63
-1.00
-1.61
-2.49
-3.56
-4.66
-5.57
-6.05
-5.93
-5.16
-3.84
-2.14
-0.31
1.46
3.03
4.37
5.47
6.32
6.89
7.12
7.01
6.58
5.95
5.27
4.68
4.27
4.04
3.93
3.85
3.72
3.47
3.10
2.60
1.98
1.27
0.52
-0.17
-0.71
-1.07
-1.29
-1.50
-1.83
-2.37
-3.08
-3.84
-4.45
-4.75
-4.61
-4.03
-3.07
-1.87
-0.57
0.68
1.78
2.66
3.29
3.62
3.66
3.42
3.01
2.56
2.21
2.07
2.11
2.24
2.31
2.22
1.96
1.59
1.21
0.89
0.61
0.35
0.06
-0.30
-0.75
-1.32
-2.05
-2.94
-3.97
-5.01
-5.89
-6.42
-6.51
-6.18
-5.55
-4.72
-3.75
-2.62
-1.29
0.20
1.72
3.05
4.01
4.51
4.62
4.53
4.42
4.38
4.40
4.40
4.26
3.90
3.33
2.61
1.80
1.03
0.36
-0.19
-0.63
-1.03
-1.48
-1.98
-2.53
-3.04
-3.50
-3.92
-4.34
-4.80
-5.30
-5.74
-6.03
-6.04
-5.74
-5.14
-4.31
-3.34
-2.31
-1.30
-0.34
0.53
1.29
1.90
2.31
2.45
2.29
1.90
1.39
0.94
0.69
0.67
0.82
1.00
1.07
0.97
0.75
0.53
0.41
0.43
0.56
0.68
0.67
0.44
-0.03
-0.74
-1.63
-2.59
-3.50
-4.16
-4.39
-4.03
-3.10
-1.75
-0.28
1.03
1.96
2.49
2.69
2.71
2.65
2.53
2.35
2.11
1.88
1.77
1.83
2.02
2.23
2.31
2.15
1.75
1.20
0.61
0.09
-0.36
-0.76
-1.15
-1.59
-2.07
-2.59
-3.16
-3.81
-4.52
-5.25
-5.88
-6.25
-6.25
-5.80
-4.98
-3.89
-2.68
-1.43
-0.20
0.97
1.97
2.68
3.01
2.91
2.48
1.91
1.38
1.02
0.85
0.81
0.77
0.63
0.37
0.03
-0.29
-0.52
-0.62
-0.59
-0.54
-0.57
-0.83
-1.39
-2.23
-3.29
-4.43
-5.52
-6.44
-7.06
-7.30
-7.06
-6.30
-5.09
-3.55
-1.91
-0.38
0.92
1.97
2.83
3.56
4.20
4.69
4.93
4.86
4.50
3.91
3.24
2.63
2.19
1.98
1.96
2.03
2.05
1.90
1.53
0.97
0.32
-0.30
-0.86
-1.38
-1.94
-2.58
-3.29
-3.98
-4.56
-5.00
-5.32
-5.54
-5.67
-5.63
-5.29
-4.53
-3.34
-1.85
-0.31
1.06
2.10
2.82
3.36
3.86
4.40
4.91
5.24
5.21
4.75
3.98
3.13
2.42
2.02
1.95
2.10
2.32
2.52
2.65
2.77
2.93
3.15
3.37
3.49
3.36
2.90
2.05
0.87
-0.48
-1.81
-2.90
-3.63
-4.01
-4.21
-4.44
-4.85
-5.48
-6.21
-6.82
-7.08
-6.88
-6.17
-5.04
-3.60
-2.03
-0.48
0.88
1.94
2.65
3.06
3.28
3.41
3.49
3.53
3.49
3.38
3.25
3.20
3.27
3.47
3.70
3.85
3.84
3.66
3.38
3.09
2.84
2.65
2.49
2.32
2.09
1.76
1.30
0.72
0.08
-0.58
-1.21
-1.82
-2.46
-3.20
-4.11
-5.18
-6.32
-7.41
-8.33
-9.03
-9.51
-9.79
-9.87
-9.67
-9.13
-8.17
-6.84
-5.30
-3.82
-2.66
-1.95
-1.65
-1.53
-1.34
-0.88
-0.12
0.81
1.71
2.43
2.95
3.36
3.80
4.38
5.11
5.88
6.58
7.12
7.42
7.50
7.33
6.92
6.24
5.31
4.21
3.08
2.09
1.33
0.80
0.40
-0.01
-0.56
-1.32
-2.24
-3.23
-4.18
-4.97
-5.50
-5.72
-5.55
-4.99
-4.10
-2.96
-1.73
-0.54
0.51
1.41
2.16
2.79
3.30
3.65
3.74
3.53
3.03
2.36
1.69
1.19
0.95
0.99
1.25
1.61
1.96
2.22
2.32
2.25
2.03
1.66
1.17
0.56
-0.13
-0.89
-1.65
-2.39
-3.08
-3.75
-4.41
-5.03
-5.54
-5.85
-5.90
-5.70
-5.29
-4.76
-4.17
-3.51
-2.72
-1.75
-0.59
0.69
1.97
3.11
3.99
4.54
4.77
4.70
4.40
3.92
3.36
2.81
2.40
2.20
2.21
2.39
2.58
2.67
2.58
2.31
1.91
1.47
1.05
0.66
0.30
-0.08
-0.51
-1.00
-1.54
-2.11
-2.67
-3.22
-3.79
-4.40
-5.05
-5.63
-5.96
-5.86
-5.23
-4.09
-2.63
-1.11
0.26
1.33
2.11
2.67
3.09
3.40
3.57
3.55
3.34
3.00
2.63
2.34
2.15
2.07
2.02
1.97
1.89
1.80
1.69
1.55
1.37
1.18
0.99
0.84
0.71
0.55
0.28
-0.17
-0.81
-1.56
-2.37
-3.13
-3.82
-4.39
-4.81
-5.03
-5.00
-4.67
-4.04
-3.15
-2.10
-1.03
-0.05
0.77
1.44
2.01
2.51
2.94
3.23
3.33
3.24
3.00
2.71
2.46
2.29
2.17
2.08
1.98
1.90
1.84
1.82
1.77
1.64
1.36
0.96
0.49
0.05
-0.31
-0.57
-0.82
-1.13
-1.56
-2.09
-2.65
-3.14
-3.47
-3.57
-3.46
-3.16
-2.69
-2.04
-1.18
-0.04
1.38
3.00
4.64
6.06
7.07
7.58
7.64
7.43
7.11
6.80
6.51
6.19
5.80
5.34
4.89
4.54
4.35
4.31
4.35
4.37
4.28
4.01
3.53
2.87
2.08
1.26
0.47
-0.22
-0.80
-1.26
-1.65
-2.03
-2.46
-3.03
-3.77
-4.64
-5.52
-6.25
-6.62
-6.53
-5.96
-5.02
-3.88
-2.72
-1.69
-0.89
-0.34
-0.05
0.04
-0.04
-0.22
-0.46
-0.75
-1.07
-1.41
-1.73
-1.94
-1.96
-1.72
-1.22
-0.60
0.00
0.41
0.55
0.43
0.13
-0.27
-0.68
-1.08
-1.50
-1.97
-2.50
-3.08
-3.68
-4.24
-4.71
-5.06
-5.22
-5.11
-4.64
-3.73
-2.39
-0.74
0.98
2.47
3.49
3.93
3.87
3.49
2.99
2.56
2.25
2.03
1.85
1.70
1.56
1.48
1.45
1.43
1.37
1.20
0.91
0.53
0.11
-0.31
-0.71
-1.14
-1.63
-2.22
-2.88
-3.55
-4.14
-4.58
-4.79
-4.73
-4.40
-3.83
-3.10
-2.30
-1.50
-0.74
-0.01
0.65
1.25
1.74
2.08
2.30
2.45
2.64
2.91
3.22
3.45
3.48
3.24
2.79
2.27
1.80
1.50
1.39
1.44
1.60
1.79
1.92
1.90
1.62
1.08
0.32
-0.56
-1.44
-2.22
-2.89
-3.48
-4.03
-4.59
-5.15
-5.68
-6.06
-6.15
-5.81
-4.95
-3.62
-1.98
-0.29
1.17
2.21
2.80
3.01
2.99
2.89
2.80
2.74
2.68
2.59
2.44
2.26
2.09
1.98
1.95
2.00
2.06
2.06
1.96
1.75
1.49
1.21
0.96
0.73
0.48
0.20
-0.10
-0.40
-0.65
-0.90
-1.20
-1.63
-2.23
-2.98
-3.78
-4.46
-4.81
-4.66
-3.95
-2.76
-1.32
0.09
1.25
2.05
2.54
2.81
2.94
2.95
2.82
2.58
2.32
2.13
2.11
2.23
2.41
2.56
2.63
2.65
2.69
2.75
2.77
2.66
2.37
1.97
1.57
1.29
1.16
1.10
0.93
0.54
-0.09
-0.87
-1.63
-2.23
-2.59
-2.73
-2.80
-2.96
-3.37
-4.12
-5.12
-6.19
-7.03
-7.41
-7.20
-6.45
-5.35
-4.12
-2.91
-1.80
-0.74
0.32
1.37
2.34
3.13
3.63
3.82
3.75
3.54
3.31
3.14
3.04
3.01
3.01
3.03
3.10
3.24
3.42
3.57
3.60
3.40
2.97
2.40
1.81
1.32
0.95
0.61
0.19
-0.39
-1.09
-1.80
-2.41
-2.89
-3.31
-3.79
-4.39
-5.03
-5.54
-5.70
-5.38
-4.60
-3.53
-2.38
-1.33
-0.45
0.30
1.03
1.81
2.64
3.41
3.95
4.11
3.85
3.29
2.66
2.18
1.99
2.10
2.34
2.55
2.63
2.56
2.43
2.32
2.28
2.29
2.26
2.14
1.87
1.50
1.07
0.66
0.27
-0.09
-0.47
-0.92
-1.43
-2.00
-2.56
-3.07
-3.50
-3.86
-4.14
-4.33
-4.36
-4.11
-3.51
-2.55
-1.36
-0.15
0.88
1.60
2.03
2.27
2.45
2.64
2.82
2.91
2.89
2.80
2.80
3.08
3.75
4.80
6.12
7.57
9.03
10.48
11.95
13.47
14.99
16.45
17.74
18.81
19.66
20.34
20.91
21.40
21.78
22.02
22.04
21.84
21.37
20.66
19.67
18.39
16.76
14.76
12.39
9.75
7.05
4.56
2.52
1.06
0.16
-0.33
-0.69
-1.19
-2.08
-3.53
-5.61
-8.22
-11.14
-13.99
-16.38
-17.98
-18.75
-18.85
-18.65
-18.53
-18.74
-19.30
-20.05
-20.77
-21.25
-21.38
-21.19
-20.83
-20.44
-20.10
-19.79
-19.33
-18.53
-17.25
-15.53
-13.50
-11.35
-9.20
-7.00
-4.64
-2.01
0.79
3.45
5.62
7.02
7.67
7.84
7.98
8.50
9.63
11.34
13.40
15.48
17.27
18.61
19.48
20.03
20.47
20.98
21.60
22.17
22.38
21.95
20.75
18.91
16.77
14.82
13.66
13.89
16.06
20.36
26.38
33.01
38.63
41.60
40.88
36.50
29.53
21.60
14.30
8.60
4.73
2.36
1.00
0.25
-0.09
-0.17
-0.16
-0.27
-0.73
-1.63
-2.91
-4.40
-5.90
-7.31
-8.66
-10.10
-11.75
-13.67
-15.86
-18.21
-20.61
-22.94
-25.08
-26.91
-28.34
-29.33
-29.88
-29.81
-28.69
-25.85
-20.66
-13.00
-3.53
6.31
14.81
20.57
23.10
22.78
20.59
17.45
13.88
9.89
5.28
-0.05
-5.95
-12.11
-18.29
-24.44
-30.68
-37.18
-44.03
-51.13
-58.29
-65.29
-72.02
-78.41
-84.43
-89.95
-94.71
-98.33
-100.37
-100.42
-98.21
-93.61
-86.75
-77.95
-67.77
-56.90
-46.03
-35.74
-26.38
-18.03
-10.60
-3.97
1.87
6.82
10.74
13.62
15.62
17.09
18.42
19.83
21.31
22.66
23.60
24.00
23.92
23.58
23.22
22.94
22.68
22.24
21.46
20.32
18.93
17.51
16.21
15.07
14.03
12.99
11.89
10.78
9.77
8.99
8.51
8.33
8.38
8.54
8.68
8.68
8.47
8.06
7.51
6.97
6.56
6.38
6.43
6.60
6.73
6.68
6.43
6.07
5.74
5.60
5.72
6.02
6.32
6.48
6.44
6.25
6.07
5.99
6.01
5.99
5.78
5.27
4.52
3.71
3.03
2.60
2.38
2.23
2.00
1.62
1.17
0.82
0.75
1.02
1.57
2.23
2.82
3.26
3.56
3.84
4.19
4.66
5.14
5.47
5.53
5.29
4.85
4.37
4.00
3.80
3.74
3.72
3.72
3.73
3.78
3.86
3.92
3.87
3.65
3.30
2.91
2.65
2.58
2.68
2.80
2.74
2.35
1.62
0.66
-0.33
-1.12
-1.57
-1.63
-1.31
-0.68
0.18
1.21
2.32
3.42
4.41
5.19
5.71
5.98
6.06
6.07
6.09
6.16
6.24
6.26
6.13
5.81
5.38
4.95
4.66
4.61
4.80
5.14
5.51
5.80
5.96
6.01
6.01
6.02
6.04
6.01
5.86
5.50
4.90
4.10
3.19
2.23
1.28
0.40
-0.38
-1.01
-1.47
-1.76
-2.02
-2.43
-3.15
-4.24
-5.55
-6.81
-7.68
-7.90
-7.38
-6.19
-4.55
-2.71
-0.86
0.86
2.36
3.62
4.63
5.37
5.87
6.18
6.39
6.62
6.97
7.45
8.01
8.56
9.01
9.32
9.54
9.71
9.90
10.12
10.33
10.44
10.39
10.14
9.67
9.05
8.34
7.65
7.06
6.59
6.20
5.85
5.46
5.01
4.48
3.85
3.09
2.17
1.08
-0.17
-1.48
-2.74
-3.85
-4.77
-5.49
-6.02
-6.30
-6.21
-5.65
-4.57
-3.05
-1.29
0.51
2.16
3.60
4.81
5.76
6.41
6.69
6.57
6.13
5.53
4.99
4.71
4.75
5.06
5.44
5.69
5.72
5.55
5.32
5.19
5.24
5.38
5.47
5.33
4.90
4.21
3.37
2.53
1.79
1.18
0.66
0.17
-0.37
-1.08
-2.01
-3.17
-4.45
-5.63
-6.45
-6.68
-6.23
-5.14
-3.56
-1.70
0.20
1.94
3.34
4.33
4.94
5.28
5.54
5.90
6.43
7.07
7.62
7.90
7.76
7.20
6.36
5.47
4.70
4.20
3.96
3.95
4.07
4.23
4.40
4.53
4.60
4.55
4.30
3.80
3.04
2.08
1.03
0.01
-0.93
-1.80
-2.69
-3.69
-4.82
-5.98
-7.03
-7.79
-8.15
-8.07
-7.54
-6.56
-5.15
-3.39
-1.44
0.46
2.07
3.25
3.98
4.37
4.58
4.75
4.88
4.92
4.84
4.61
4.31
4.04
3.86
3.78
3.74
3.68
3.56
3.37
3.15
2.95
2.81
2.69
2.53
2.24
1.74
1.06
0.26
-0.56
-1.28
-1.89
-2.41
-2.95
-3.62
-4.51
-5.60
-6.79
-7.89
-8.66
-8.90
-8.47
-7.34
-5.63
-3.56
-1.43
0.45
1.89
2.80
3.27
3.45
3.54
3.64
3.81
3.97
4.04
3.95
3.68
3.29
2.87
2.50
2.25
2.14
2.19
2.36
2.60
2.80
2.85
2.67
2.23
1.58
0.83
0.10
-0.54
-1.07
-1.56
-2.11
-2.79
-3.64
-4.57
-5.49
-6.25
-6.73
-6.85
-6.58
-5.96
-5.07
-3.99
-2.79
-1.53
-0.24
1.00
2.11
2.93
3.36
3.32
2.87
2.19
1.49
0.93
0.63
0.60
0.79
1.12
1.50
1.82
1.99
1.94
1.69
1.30
0.90
0.58
0.39
0.27
0.12
-0.12
-0.46
-0.86
-1.27
-1.73
-2.32
-3.12
-4.15
-5.30
-6.34
-7.04
-7.20
-6.80
-5.93
-4.78
-3.58
-2.48
-1.60
-0.97
-0.59
-0.41
-0.34
-0.35
-0.40
-0.49
-0.62
-0.73
-0.78
-0.68
-0.43
-0.09
0.23
0.49
0.65
0.79
0.97
1.17
1.27
1.10
0.51
-0.52
-1.85
-3.21
-4.36
-5.15
-5.63
-5.98
-6.41
-7.06
-7.93
-8.85
-9.58
-9.92
-9.74
-9.06
-7.93
-6.48
-4.80
-3.01
-1.20
0.49
1.93
3.01
3.64
3.75
3.37
2.56
1.51
0.43
-0.50
-1.14
-1.46
-1.52
-1.38
-1.12
-0.80
-0.50
-0.25
-0.12
-0.09
-0.08
0.01
0.22
0.46
0.57
0.35
-0.33
-1.43
-2.77
-4.14
-5.35
-6.26
-6.80
-6.89
-6.50
-5.62
-4.32
-2.77
-1.20
0.16
1.16
1.71
1.86
1.66
1.24
0.74
0.31
0.06
0.04
0.21
0.44
0.58
0.50
0.17
-0.34
-0.93
-1.50
-1.96
-2.29
-2.53
-2.74
-3.02
-3.46
-4.09
-4.91
-5.86
-6.83
-7.68
-8.24
-8.39
-8.05
-7.21
-5.95
-4.40
-2.71
-1.05
0.45
1.73
2.74
3.48
3.92
4.09
4.02
3.79
3.50
3.25
3.08
2.99
2.90
2.78
2.63
2.50
2.47
2.57
2.75
2.84
2.62
1.98
0.89
-0.51
-1.98
-3.35
-4.47
-5.30
-5.82
-6.01
-5.83
-5.29
-4.41
-3.28
-1.99
-0.62
0.77
2.10
3.30
4.28
4.97
5.35
5.44
5.31
5.04
4.70
4.34
4.04
3.82
3.70
3.64
3.59
3.51
3.40
3.29
3.17
3.01
2.72
2.22
1.51
0.67
-0.17
-0.87
-1.41
-1.89
-2.45
-3.23
-4.29
-5.48
-6.60
-7.37
-7.55
-7.06
-5.94
-4.32
-2.42
-0.42
1.52
3.31
4.88
6.14
6.99
7.37
7.26
6.75
6.04
5.35
4.89
4.74
4.89
5.25
5.66
6.01
6.19
6.19
6.02
5.72
5.35
4.97
4.62
4.32
4.08
3.86
3.60
3.25
2.75
2.13
1.41
0.67
-0.02
-0.61
-1.12
-1.58
-2.07
-2.65
-3.37
-4.25
-5.27
-6.35
-7.37
-8.19
-8.66
-8.66
-8.17
-7.19
-5.81
-4.13
-2.27
-0.36
1.46
3.07
4.36
5.28
5.82
6.01
5.95
5.72
5.42
5.14
4.95
4.90
4.98
5.16
5.38
5.60
5.77
5.86
5.86
5.76
5.56
5.31
5.00
4.68
4.33
3.97
3.59
3.23
2.89
2.53
2.07
1.43
0.57
-0.49
-1.63
-2.73
-3.71
-4.52
-5.21
-5.86
-6.54
-7.28
-8.07
-8.82
-9.41
-9.70
-9.57
-8.94
-7.81
-6.20
-4.26
-2.16
-0.13
1.63
2.97
3.86
4.31
4.42
4.28
3.98
3.62
3.27
3.02
2.94
3.03
3.27
3.57
3.86
4.08
4.20
4.25
4.21
4.06
3.82
3.51
3.20
2.94
2.73
2.53
2.22
1.67
0.86
-0.16
-1.25
-2.23
-2.95
-3.37
-3.59
-3.79
-4.18
-4.87
-5.83
-6.88
-7.77
-8.21
-8.04
-7.20
-5.79
-3.98
-2.02
-0.14
1.42
2.54
3.20
3.48
3.55
3.54
3.55
3.59
3.60
3.55
3.42
3.27
3.15
3.08
3.08
3.14
3.27
3.50
3.84
4.26
4.63
4.80
4.64
4.13
3.38
2.57
1.89
1.47
1.26
1.15
0.96
0.53
-0.13
-0.95
-1.78
-2.49
-3.04
-3.50
-3.98
-4.59
-5.29
-6.00
-6.57
-6.90
-6.95
-6.74
-6.32
-5.69
-4.80
-3.65
-2.26
-0.75
0.72
1.98
2.93
3.53
3.83
3.92
3.90
3.80
3.66
3.45
3.18
2.87
2.58
2.37
2.30
2.38
2.57
2.81
3.01
3.11
3.07
2.88
2.54
2.07
1.52
0.94
0.37
-0.14
-0.57
-0.92
-1.24
-1.55
-1.91
-2.35
-2.87
-3.45
-4.06
-4.68
-5.27
-5.83
-6.33
-6.77
-7.12
-7.32
-7.28
-6.90
-6.12
-4.95
-3.54
-2.09
-0.81
0.17
0.83
1.24
1.48
1.60
1.60
1.45
1.17
0.84
0.55
0.39
0.34
0.34
0.33
0.30
0.27
0.29
0.38
0.51
0.61
0.67
0.67
0.66
0.61
0.45
0.13
-0.39
-1.06
-1.75
-2.35
-2.80
-3.14
-3.44
-3.79
-4.20
-4.67
-5.13
-5.55
-5.82
-5.86
-5.53
-4.73
-3.50
-1.98
-0.46
0.79
1.61
1.97
2.03
2.01
2.08
2.31
2.62
2.83
2.81
2.51
1.96
1.32
0.72
0.27
-0.00
-0.09
-0.02
0.20
0.54
0.95
1.32
1.51
1.41
0.97
0.25
-0.62
-1.48
-2.23
-2.85
-3.41
-4.02
-4.76
-5.66
-6.63
-7.52
-8.15
-8.36
-8.10
-7.40
-6.34
-5.05
-3.63
-2.19
-0.82
0.36
1.26
1.82
2.08
2.13
2.11
2.08
2.06
1.95
1.68
1.21
0.63
0.10
-0.19
-0.15
0.18
0.64
1.03
1.22
1.20
1.04
0.86
0.68
0.43
0.03
-0.58
-1.35
-2.12
-2.72
-3.09
-3.35
-3.67
-4.25
-5.13
-6.15
-7.06
-7.58
-7.50
-6.83
-5.65
-4.17
-2.56
-0.98
0.49
1.76
2.76
3.40
3.62
3.42
2.91
2.24
1.65
1.30
1.28
1.53
1.94
2.35
2.65
2.79
2.79
2.72
2.64
2.56
2.48
2.32
2.04
1.60
1.07
0.53
0.10
-0.19
-0.42
-0.71
-1.24
-2.08
-3.19
-4.39
-5.47
-6.21
-6.55
-6.46
-6.01
-5.24
-4.16
-2.78
-1.17
0.46
1.89
2.86
3.26
3.15
2.73
2.21
1.76
1.45
1.25
1.10
1.01
1.01
1.14
1.39
1.73
2.05
2.26
2.27
2.07
1.66
1.10
0.45
-0.22
-0.87
-1.49
-2.09
-2.72
-3.39
-4.09
-4.81
-5.51
-6.20
-6.80
-7.23
-7.33
-6.96
-6.03
-4.57
-2.76
-0.87
0.80
2.06
2.82
3.17
3.26
3.27
3.32
3.50
3.82
4.23
4.68
5.06
5.25
5.18
4.82
4.28
3.69
3.28
3.14
3.29
3.59
3.81
3.78
3.39
2.68
1.74
0.71
-0.29
-1.19
-1.97
-2.63
-3.25
-3.94
-4.75
-5.70
-6.66
-7.41
-7.70
-7.36
-6.38
-4.87
-3.07
-1.22
0.51
2.00
3.21
4.11
4.71
5.07
5.23
5.25
5.17
5.04
4.90
4.82
4.91
5.17
5.55
5.93
6.13
6.06
5.73
5.29
4.88
4.62
4.52
4.50
4.43
4.20
3.79
3.21
2.54
1.80
1.01
0.16
-0.75
-1.68
-2.56
-3.35
-4.05
-4.77
-5.61
-6.62
-7.67
-8.51
-8.89
-8.63
-7.71
-6.34
-4.77
-3.19
-1.73
-0.38
0.91
2.12
3.19
4.03
4.58
4.85
4.92
4.87
4.77
4.67
4.55
4.41
4.26
4.18
4.24
4.50
4.93
5.41
5.80
5.97
5.94
5.78
5.63
5.52
5.37
5.04
4.38
3.37
2.17
1.02
0.14
-0.39
-0.64
-0.74
-0.85
-1.04
-1.35
-1.81
-2.42
-3.20
-4.12
-5.06
-5.86
-6.35
-6.41
-6.00
-5.15
-3.96
-2.56
-1.09
0.32
1.54
2.48
3.09
3.40
3.50
3.54
3.63
3.80
4.02
4.16
4.12
3.88
3.51
3.15
2.90
2.83
2.91
3.07
3.26
3.45
3.62
3.76
3.82
3.78
3.64
3.43
3.17
2.85
2.42
1.80
0.96
-0.02
-1.02
-1.91
-2.58
-3.04
-3.33
-3.52
-3.71
-3.98
-4.41
-5.06
-5.87
-6.71
-7.38
-7.68
-7.52
-6.88
-5.87
-4.59
-3.20
-1.82
-0.59
0.42
1.20
1.83
2.47
3.23
4.07
4.84
5.37
5.55
5.42
5.13
4.84
4.62
4.46
4.32
4.23
4.26
4.48
4.89
5.37
5.73
5.80
5.54
5.03
4.39
3.74
3.13
2.57
2.04
1.54
1.06
0.61
0.18
-0.25
-0.69
-1.18
-1.72
-2.34
-3.05
-3.81
-4.57
-5.24
-5.80
-6.25
-6.67
-7.10
-7.54
-7.86
-7.92
-7.58
-6.80
-5.65
-4.27
-2.79
-1.32
0.05
1.27
2.27
3.01
3.43
3.56
3.49
3.34
3.21
3.14
3.16
3.22
3.32
3.44
3.60
3.81
4.06
4.34
4.65
4.96
5.27
5.58
5.86
6.10
6.28
6.39
6.45
6.45
6.45
6.44
6.48
6.56
6.69
6.85
6.99
7.14
7.33
7.66
8.27
9.18
10.33
11.56
12.68
13.66
14.65
16.02
18.19
21.46
25.83
31.01
36.54
41.86
46.54
50.20
52.55
53.37
52.54
50.13
46.28
41.23
35.16
28.23
20.62
12.74
5.24
-1.16
-5.86
-8.64
-9.71
-9.57
-8.85
-8.02
-7.36
-6.98
-6.87
-6.94
-7.07
-7.10
-6.97
-6.82
-6.91
-7.54
-8.79
-10.40
-11.91
-12.86
-13.09
-12.82
-12.59
-12.86
-13.81
-15.14
-16.27
-16.67
-16.14
-14.98
-13.80
-13.29
-13.91
-15.71
-18.37
-21.37
-24.16
-26.37
-27.84
-28.62
-28.85
-28.66
-28.07
-26.95
-24.95
-21.53
-15.97
-7.65
3.56
16.77
29.79
39.43
42.42
36.67
22.21
1.39
-21.88
-43.39
-59.88
-69.76
-73.04
-70.85
-64.85
-56.73
-47.98
-39.70
-32.41
-25.92
-19.52
-12.35
-3.93
5.55
15.32
24.46
32.33
38.80
44.09
48.44
51.86
54.18
55.41
55.99
56.83
58.79
62.04
65.49
66.92
63.71
53.68
35.69
9.78
-23.19
-61.69
-103.45
-145.20
-182.88
-212.31
-230.47
-236.51
-231.90
-219.64
-202.82
-183.48
-162.38
-139.57
-115.27
-90.33
-65.98
-43.13
-21.99
-2.20
16.62
34.28
49.91
62.40
71.06
76.06
78.37
79.28
79.82
80.42
80.97
81.08
80.41
78.84
76.43
73.26
69.35
64.68
59.24
53.23
46.97
40.86
35.16
29.98
25.26
20.89
16.78
12.92
9.25
5.65
1.91
-2.19
-6.76
-11.67
-16.60
-21.08
-24.65
-26.96
-27.88
-27.41
-25.78
-23.30
-20.37
-17.31
-14.37
-11.63
-9.08
-6.68
-4.41
-2.26
-0.21
1.78
3.83
6.07
8.57
11.33
14.28
17.29
20.23
23.04
25.63
27.97
29.96
31.53
32.63
33.26
33.47
33.32
32.82
31.89
30.39
28.23
25.38
22.03
18.39
14.74
11.22
7.93
4.89
2.16
-0.10
-1.68
-2.44
-2.35
-1.56
-0.35
1.00
2.28
3.36
4.15
4.57
4.52
3.90
2.71
1.04
-0.95
-2.99
-4.87
-6.43
-7.62
-8.52
-9.26
-9.96
-10.68
-11.40
-12.04
-12.50
-12.73
-12.79
-12.73
-12.61
-12.40
-12.03
-11.51
-11.04
-11.06
-12.11
-14.65
-18.72
-23.83
-29.02
-33.19
-35.42
-35.32
-33.02
-29.02
-23.89
-18.10
-11.94
-5.70
0.29
5.65
10.07
13.45
15.96
17.93
19.62
21.16
22.46
23.35
23.70
23.47
22.75
21.65
20.32
18.93
17.65
16.62
15.87
15.32
14.82
14.24
13.57
12.92
12.42
12.12
11.91
11.59
11.00
10.20
9.42
8.97
9.01
9.46
10.02
10.35
10.32
10.03
9.77
9.77
10.07
10.50
10.76
10.67
10.31
9.95
9.93
10.50
11.65
13.18
14.74
15.97
16.55
16.30
15.22
13.47
11.39
9.29
7.41
5.78
4.30
2.77
1.06
-0.95
-3.38
-6.37
-10.03
-14.27
-18.64
-22.39
-24.71
-25.07
-23.49
-20.50
-16.90
-13.34
-10.11
-7.14
-4.20
-1.18
1.87
4.80
7.51
10.06
12.61
15.20
17.63
19.41
19.93
18.79
16.00
12.08
7.91
4.37
2.08
1.17
1.31
1.99
2.70
3.23
3.62
4.11
4.85
5.87
6.93
7.71
7.89
7.32
6.04
4.22
2.07
-0.21
-2.50
-4.65
-6.50
-7.88
-8.62
-8.70
-8.21
-7.37
-6.46
-5.77
-5.49
-5.74
-6.47
-7.48
-8.39
-8.70
-8.01
-6.14
-3.25
0.19
3.59
6.50
8.67
10.17
11.13
11.72
11.96
11.83
11.35
10.68
10.01
9.48
9.01
8.32
7.04
4.93
2.04
-1.21
-4.25
-6.51
-7.70
-7.85
-7.30
-6.52
-5.92
-5.76
-6.07
-6.68
-7.31
-7.67
-7.50
-6.69
-5.27
-3.51
-1.85
-0.86
-1.07
-2.73
-5.66
-9.19
-12.37
-14.12
-13.72
-11.12
-7.03
-2.73
0.42
1.56
0.63
-1.53
-3.49
-3.91
-2.09
1.77
6.72
11.48
15.11
16.98
17.08
15.95
14.36
13.07
12.59
13.15
14.76
17.50
20.89
24.32
27.25
29.34
30.37
30.26
29.12
27.29
25.72
24.48
23.31
21.78
19.49
16.14
11.56
5.89
-0.62
-6.71
-12.36
-17.90
-23.82
-30.49
-38.28
-47.75
-59.65
-75.30
-90.21
-100.79
-105.37
-104.91
-101.13
-94.88
-86.64
-77.77
-74.94
-79.05
-89.94
-104.73
-117.70
-121.74
-111.32
-85.00
-42.47
8.70
58.12
94.27
109.05
100.19
71.45
30.91
-11.54
-46.55
-67.65
-70.88
-56.71
-29.17
5.31
39.46
66.72
82.62
85.42
75.44
55.03
26.60
-7.78
-46.58
-88.60
-132.45
-176.21
-217.08
-251.78
-276.34
-287.36
-282.71
-262.32
-228.19
-183.76
-132.91
-79.07
-25.16
26.42
73.13
112.24
141.42
159.81
168.59
170.75
169.87
168.76
168.63
169.29
169.84
169.63
168.68
167.44
166.22
164.77
162.37
158.23
152.07
144.34
136.13
128.79
123.28
119.84
117.88
116.15
113.14
107.57
98.78
86.95
73.01
58.32
44.20
31.47
20.37
10.58
1.55
-7.19
-15.85
-24.27
-32.15
-39.14
-45.03
-49.85
-53.71
-56.66
-58.47
-58.66
-56.71
-52.29
-45.59
-37.29
-28.42
-19.97
-12.65
-6.76
-2.23
1.15
3.55
5.06
5.69
5.46
4.51
3.13
1.72
0.67
0.23
0.35
0.72
0.83
0.20
-1.40
-3.85
-6.71
-9.39
-11.39
-12.44
-12.53
-11.84
-10.63
-9.13
-7.48
-5.86
-4.45
-3.51
-3.28
-3.93
-5.42
-7.49
-9.72
-11.59
-12.64
-12.54
-11.21
-8.84
-5.91
-3.05
-0.89
0.27
0.47
0.14
-0.20
-0.19
0.23
0.77
1.00
0.59
-0.54
-2.23
-4.17
-6.04
-7.56
-8.57
-9.00
-8.92
-8.46
-7.85
-7.28
-6.85
-6.55
-6.30
-6.03
-5.72
-5.39
-5.08
-4.73
-4.19
-3.30
-1.99
-0.31
1.50
3.18
4.52
5.46
6.07
6.47
6.72
6.77
6.42
5.45
3.75
1.44
-1.10
-3.35
-4.82
-5.25
-4.72
-3.60
-2.42
-1.69
-1.69
-2.46
-3.81
-5.46
-7.13
-8.62
-9.82
-10.64
-11.02
-10.88
-10.21
-9.03
-7.48
-5.73
-3.95
-2.25
-0.69
0.69
1.85
2.73
3.27
3.44
3.27
2.83
2.27
1.69
1.18
0.74
0.33
-0.15
-0.76
-1.50
-2.31
-3.08
-3.72
-4.21
-4.59
-4.94
-5.31
-5.69
-6.04
-6.26
-6.30
-6.12
-5.71
-5.03
-4.07
-2.82
-1.34
0.22
1.69
2.88
3.68
4.05
4.05
3.76
3.30
2.79
2.30
1.88
1.50
1.07
0.54
-0.10
-0.72
-1.18
-1.32
-1.15
-0.82
-0.61
-0.69
-1.16
-1.93
-2.82
-3.67
-4.37
-4.86
-5.10
-5.02
-4.54
-3.64
-2.39
-0.95
0.44
1.61
2.47
3.03
3.40
3.66
3.87
4.03
4.11
4.03
3.77
3.27
2.53
1.60
0.58
-0.36
-1.02
-1.29
-1.17
-0.82
-0.51
-0.48
-0.85
-1.60
-2.56
-3.50
-4.24
-4.71
-4.93
-4.93
-4.73
-4.23
-3.31
-1.81
0.31
2.94
5.85
8.69
11.11
12.71
13.16
12.20
9.79
6.16
1.85
-2.33
-5.63
-7.52
-7.87
-6.96
-5.30
-3.45
-1.87
-0.78
-0.30
-0.39
-0.98
-1.98
-3.28
-4.69
-6.02
-6.99
-7.38
-7.02
-5.94
-4.30
-2.39
-0.49
1.17
2.51
3.52
4.28
4.89
5.47
6.17
7.08
8.16
9.19
9.81
9.59
8.22
5.69
2.28
-1.45
-4.87
-7.42
-8.78
-8.93
-8.09
-6.65
-5.04
-3.61
-2.66
-2.32
-2.63
-3.47
-4.63
-5.82
-6.73
-7.09
-6.77
-5.76
-4.22
-2.40
-0.60
0.95
2.14
3.05
3.88
4.86
6.10
7.56
9.01
10.18
10.83
10.87
10.29
9.11
7.43
5.37
3.14
1.04
-0.61
-1.61
-1.97
-1.89
-1.68
-1.65
-1.98
-2.71
-3.74
-4.85
-5.82
-6.41
-6.43
-5.79
-4.49
-2.67
-0.56
1.59
3.53
5.09
6.20
6.87
7.15
7.19
7.07
6.85
6.55
6.10
5.45
4.55
3.47
2.31
1.26
0.48
0.07
0.01
0.16
0.33
0.30
-0.08
-0.92
-2.23
-3.96
-5.96
-7.96
-9.65
-10.70
-10.90
-10.21
-8.79
-6.91
-4.86
-2.83
-0.89
0.92
2.54
3.88
4.80
5.24
5.24
4.99
4.72
4.58
4.61
4.71
4.69
4.35
3.63
2.60
1.46
0.50
-0.09
-0.19
0.10
0.59
1.00
1.13
0.86
0.25
-0.55
-1.35
-1.96
-2.28
-2.26
-1.89
-1.19
-0.24
0.88
2.05
3.14
4.06
4.75
5.23
5.52
5.67
5.69
5.54
5.19
4.64
3.90
3.04
2.15
1.33
0.70
0.35
0.33
0.63
1.13
1.68
2.03
1.98
1.35
0.12
-1.56
-3.39
-4.99
-6.00
-6.17
-5.47
-4.05
-2.19
-0.21
1.63
3.14
4.26
5.01
5.49
5.80
6.01
6.14
6.15
6.00
5.66
5.15
4.56
3.95
3.34
2.73
2.09
1.40
0.72
0.10
-0.46
-1.01
-1.67
-2.55
-3.70
-5.01
-6.29
-7.38
-8.16
-8.65
-8.93
-9.06
-9.01
-8.68
-7.97
-6.85
-5.35
-3.58
-1.66
0.31
2.26
4.07
5.56
6.54
6.81
6.31
5.10
3.42
1.60
-0.03
-1.21
-1.82
-1.92
-1.67
-1.30
-1.01
-0.91
-1.00
-1.24
-1.57
-1.95
-2.38
-2.89
-3.47
-4.06
-4.63
-5.13
-5.58
-6.00
-6.39
-6.70
-6.82
-6.59
-5.90
-4.74
-3.21
-1.48
0.20
1.66
2.78
3.54
3.97
4.15
4.10
3.87
3.49
3.01
2.54
2.15
1.91
1.82
1.82
1.81
1.70
1.49
1.19
0.90
0.68
0.57
0.52
0.42
0.15
-0.41
-1.31
-2.47
-3.70
-4.76
-5.47
-5.76
-5.67
-5.30
-4.68
-3.73
-2.31
-0.31
2.18
4.85
7.20
8.72
9.01
7.93
5.59
2.34
-1.35
-4.93
-7.90
-9.84
-10.54
-10.00
-8.43
-6.20
-3.72
-1.36
0.61
2.03
2.81
2.92
2.39
1.31
-0.11
-1.63
-3.03
-4.16
-4.97
-5.46
-5.64
-5.41
-4.60
-3.04
-0.69
2.25
5.39
8.18
10.19
11.18
11.17
10.42
9.36
8.34
7.63
7.28
7.07
6.70
5.79
4.16
1.88
-0.74
-3.23
-5.22
-6.50
-7.16
-7.45
-7.68
-8.12
-8.97
-10.31
-12.18
-14.54
-17.24
-20.04
-22.62
-24.64
-25.81
-25.89
-24.74
-22.38
-19.01
-15.02
-10.91
-7.20
-4.24
-2.15
-0.84
-0.10
0.31
0.57
0.81
1.12
1.58
2.29
3.28
4.61
6.27
8.24
10.48
12.82
14.97
16.49
16.92
15.97
13.60
10.17
6.28
2.62
-0.23
-1.96
-2.57
-2.28
-1.48
-0.62
-0.08
-0.11
-0.77
-1.87
-2.99
-3.68
-3.55
-2.48
-0.67
1.49
3.53
5.13
6.15
6.68
6.91
7.00
7.07
7.18
7.36
7.62
7.95
8.32
8.65
8.90
9.09
9.23
9.31
9.19
8.63
7.40
5.43
2.89
0.17
-2.29
-4.19
-5.50
-6.44
-7.31
-8.40
-9.86
-11.68
-13.75
-15.84
-17.64
-18.80
-19.00
-18.06
-16.04
-13.21
-9.95
-6.66
-3.61
-0.95
1.26
2.97
4.21
4.99
5.46
5.80
6.25
6.99
8.10
9.55
11.28
13.16
15.03
16.65
17.62
17.50
15.88
12.59
7.83
2.19
-3.49
-8.33
-11.61
-12.99
-12.54
-10.68
-8.10
-5.51
-3.44
-2.17
-1.60
-1.36
-1.00
-0.19
1.16
2.90
4.73
6.33
7.50
8.16
8.35
8.12
7.55
6.71
5.73
4.82
4.21
4.05
4.31
4.79
5.24
5.49
5.56
5.60
5.77
6.05
6.19
5.82
4.65
2.61
-0.00
-2.72
-5.08
-6.77
-7.73
-8.07
-7.98
-7.68
-7.37
-7.25
-7.50
-8.15
-9.08
-10.02
-10.61
-10.53
-9.63
-7.92
-5.59
-2.87
-0.06
2.58
4.79
6.40
7.35
7.75
7.81
7.85
8.11
8.72
9.63
10.67
11.56
11.96
11.56
10.16
7.70
4.36
0.51
-3.35
-6.72
-9.18
-10.54
-10.80
-10.18
-9.05
-7.82
-6.86
-6.38
-6.44
-6.94
-7.71
-8.52
-9.17
-9.45
-9.18
-8.24
-6.61
-4.46
-2.10
0.13
1.90
3.07
3.70
3.99
4.15
4.38
4.75
5.29
6.02
6.89
7.86
8.80
9.50
9.72
9.29
8.20
6.67
5.07
3.76
2.95
2.65
2.66
2.74
2.68
2.40
1.95
1.43
0.88
0.29
-0.41
-1.31
-2.41
-3.64
-4.84
-5.78
-6.27
-6.20
-5.53
-4.29
-2.60
-0.58
1.60
3.73
5.60
7.03
7.90
8.26
8.23
7.96
7.57
7.06
6.41
5.67
4.99
4.62
4.81
5.61
6.82
8.01
8.63
8.20
6.48
3.54
-0.28
-4.49
-8.53
-11.91
-14.24
-15.27
-14.96
-13.49
-11.25
-8.80
-6.76
-5.64
-5.68
-6.79
-8.54
-10.29
-11.45
-11.63
-10.73
-8.93
-6.55
-3.95
-1.47
0.64
2.19
3.07
3.27
2.97
2.47
2.11
2.18
2.75
3.67
4.65
5.40
5.71
5.56
5.03
4.23
3.30
2.37
1.57
1.00
0.70
0.60
0.56
0.34
-0.21
-1.15
-2.38
-3.72
-5.02
-6.21
-7.34
-8.54
-9.90
-11.38
-12.79
-13.87
-14.32
-13.97
-12.79
-10.92
-8.56
-5.92
-3.17
-0.48
1.94
3.87
5.09
5.55
5.40
4.94
4.56
4.48
4.74
5.20
5.65
5.96
6.11
6.25
6.47
6.85
7.34
7.83
8.19
8.28
7.97
7.12
5.65
3.59
1.18
-1.22
-3.19
-4.37
-4.63
-4.07
-3.01
-1.87
-1.05
-0.78
-1.13
-1.94
-2.92
-3.76
-4.19
-4.11
-3.49
-2.45
-1.11
0.38
1.86
3.15
4.05
4.45
4.30
3.72
2.94
2.23
1.76
1.62
1.73
1.96
2.19
2.36
2.50
2.74
3.22
4.01
5.10
6.33
7.42
8.03
7.89
6.91
5.26
3.32
1.55
0.29
-0.32
-0.42
-0.29
-0.20
-0.30
-0.57
-0.88
-1.10
-1.10
-0.85
-0.35
0.35
1.17
2.00
2.73
3.27
3.53
3.51
3.21
2.63
1.80
0.77
-0.36
-1.42
-2.28
-2.81
-2.98
-2.82
-2.39
-1.80
-1.16
-0.64
-0.41
-0.62
-1.35
-2.53
-4.01
-5.57
-7.02
-8.24
-9.17
-9.78
-10.02
-9.86
-9.31
-8.46
-7.45
-6.43
-5.50
-4.66
-3.88
-3.11
-2.32
-1.52
-0.74
0.00
0.72
1.40
2.01
2.50
2.75
2.70
2.34
1.69
0.88
0.03
-0.75
-1.45
-2.08
-2.71
-3.36
-3.99
-4.48
-4.70
-4.57
-4.16
-3.61
-3.19
-3.11
-3.49
-4.31
-5.48
-6.78
-8.02
-8.94
-9.33
-9.01
-7.94
-6.22
-4.07
-1.84
0.18
1.77
2.90
3.65
4.19
4.65
5.13
5.61
6.02
6.26
6.26
6.00
5.53
4.98
4.47
4.09
3.86
3.75
3.69
3.63
3.51
3.35
3.15
2.94
2.69
2.38
1.91
1.26
0.44
-0.50
-1.44
-2.27
-2.92
-3.33
-3.48
-3.36
-3.00
-2.45
-1.80
-1.16
-0.59
-0.09
0.39
0.90
1.47
2.05
2.52
2.76
2.73
2.43
1.97
1.46
0.98
0.55
0.14
-0.32
-0.83
-1.38
-1.88
-2.27
-2.54
-2.76
-3.02
-3.41
-3.97
-4.67
-5.44
-6.21
-6.99
-7.81
-8.73
-9.78
-10.95
-12.08
-12.93
-13.28
-12.91
-11.79
-10.07
-8.04
-6.03
-4.28
-2.86
-1.66
-0.48
0.79
2.15
3.51
4.69
5.63
6.33
6.87
7.31
7.64
7.78
7.62
7.14
6.47
5.82
5.47
5.60
6.20
7.10
8.00
8.57
8.56
7.94
6.84
5.55
4.37
3.52
3.06
2.94
3.01
3.13
3.19
3.20
3.18
3.26
3.54
4.11
4.97
6.01
7.02
7.74
7.98
7.64
6.77
5.51
4.02
2.47
0.96
-0.40
-1.52
-2.32
-2.78
-2.93
-2.85
-2.67
-2.47
-2.29
-2.12
-1.94
-1.78
-1.68
-1.72
-1.95
-2.31
-2.68
-2.89
-2.80
-2.40
-1.77
-1.09
-0.51
-0.13
0.08
0.22
0.40
0.77
1.43
2.43
3.80
5.43
7.11
8.52
9.30
9.20
8.08
6.06
3.41
0.57
-2.00
-3.89
-4.88
-4.95
-4.31
-3.31
-2.35
-1.71
-1.51
-1.73
-2.22
-2.80
-3.25
-3.36
-2.96
-1.96
-0.41
1.45
3.25
4.62
5.29
5.25
4.70
4.02
3.63
3.79
4.57
5.83
7.30
8.68
9.78
10.51
10.89
10.97
10.77
10.30
9.54
8.50
7.22
5.80
4.31
2.80
1.30
-0.16
-1.54
-2.82
-4.01
-5.17
-6.40
-7.77
-9.31
-10.95
-12.59
-14.09
-15.34
-16.29
-16.90
-17.16
-17.06
-16.61
-15.83
-14.76
-13.44
-11.96
-10.34
-8.53
-6.40
-3.76
-0.53
3.19
7.05
10.55
13.15
14.48
14.42
13.11
10.94
8.33
5.74
3.56
2.04
1.33
1.40
2.07
3.02
3.93
4.50
4.59
4.25
3.67
3.12
2.85
2.94
3.31
3.77
4.08
4.03
3.50
2.47
1.03
-0.64
-2.26
-3.51
-4.10
-3.86
-2.84
-1.33
0.22
1.35
1.76
1.35
0.31
-1.00
-2.21
-3.05
-3.41
-3.34
-2.99
-2.47
-1.89
-1.36
-0.98
-0.91
-1.26
-2.05
-3.15
-4.26
-5.07
-5.36
-5.12
-4.52
-3.87
-3.44
-3.37
-3.64
-4.11
-4.54
-4.70
-4.35
-3.38
-1.77
0.39
2.87
5.39
7.63
9.28
10.09
9.96
8.95
7.33
5.50
3.88
2.74
2.15
1.95
1.87
1.68
1.27
0.65
-0.04
-0.67
-1.12
-1.28
-1.08
-0.49
0.43
1.50
2.44
2.99
2.94
2.29
1.21
-0.00
-1.09
-1.85
-2.24
-2.27
-1.94
-1.27
-0.25
1.06
2.55
4.03
5.32
6.32
7.02
7.44
7.63
7.54
7.13
6.40
5.39
4.23
3.04
1.87
0.69
-0.61
-2.10
-3.72
-5.32
-6.67
-7.63
-8.20
-8.53
-8.88
-9.44
-10.28
-11.31
-12.30
-13.01
-13.22
-12.83
-11.87
-10.49
-8.93
-7.47
-6.34
-5.61
-5.18
-4.83
-4.31
-3.47
-2.28
-0.81
0.77
2.32
3.72
4.88
5.76
6.36
6.76
7.09
7.49
8.06
8.80
9.60
10.29
10.72
10.80
10.54
9.98
9.19
8.17
6.93
5.43
3.71
1.88
0.12
-1.42
-2.62
-3.50
-4.14
-4.67
-5.13
-5.51
-5.74
-5.72
-5.43
-4.93
-4.32
-3.72
-3.20
-2.74
-2.26
-1.72
-1.10
-0.49
0.00
0.29
0.41
0.49
0.73
1.24
2.02
2.93
3.78
4.37
4.66
4.69
4.61
4.55
4.56
4.57
4.39
3.87
2.94
1.67
0.30
-0.84
-1.50
-1.56
-1.09
-0.28
0.61
1.37
1.86
2.06
2.06
1.97
1.91
1.93
1.98
1.96
1.72
1.20
0.48
-0.30
-0.95
-1.39
-1.63
-1.79
-1.98
-2.24
-2.53
-2.75
-2.90
-2.99
-3.10
-3.24
-3.38
-3.41
-3.25
-2.92
-2.55
-2.33
-2.41
-2.86
-3.65
-4.64
-5.68
-6.60
-7.25
-7.51
-7.27
-6.55
-5.46
-4.22
-3.09
-2.32
-2.02
-2.13
-2.47
-2.79
-2.87
-2.66
-2.25
-1.84
-1.64
-1.75
-2.11
-2.53
-2.84
-2.94
-2.88
-2.78
-2.77
-2.90
-3.12
-3.34
-3.57
-3.87
-4.39
-5.22
-6.30
-7.44
-8.34
-8.70
-8.36
-7.32
-5.77
-3.95
-2.11
-0.36
1.24
2.69
3.93
4.83
5.21
5.01
4.27
3.22
2.17
1.38
0.97
0.90
1.03
1.21
1.33
1.35
1.23
0.98
0.63
0.26
0.01
-0.02
0.17
0.47
0.65
0.51
-0.07
-0.99
-2.08
-3.07
-3.74
-3.99
-3.81
-3.27
-2.44
-1.40
-0.21
1.06
2.31
3.44
4.37
5.01
5.34
5.37
5.16
4.79
4.37
3.96
3.64
3.39
3.20
3.00
2.78
2.54
2.28
2.02
1.74
1.39
0.93
0.34
-0.33
-1.02
-1.63
-2.12
-2.49
-2.83
-3.19
-3.60
-4.03
-4.36
-4.45
-4.21
-3.59
-2.63
-1.47
-0.26
0.87
1.81
2.54
3.09
3.47
3.71
3.81
3.78
3.61
3.35
3.04
2.74
2.50
2.33
2.26
2.30
2.45
2.67
2.90
3.05
3.07
2.93
2.72
2.49
2.33
2.19
1.98
1.57
0.90
0.02
-0.92
-1.72
-2.20
-2.30
-2.04
-1.50
-0.78
0.04
0.90
1.73
2.48
3.11
3.60
3.96
4.18
4.25
4.15
3.79
3.14
2.19
1.04
-0.15
-1.17
-1.86
-2.14
-2.08
-1.84
-1.62
-1.56
-1.72
-2.02
-2.34
-2.56
-2.69
-2.79
-3.02
-3.50
-4.28
-5.23
-6.15
-6.78
-6.96
-6.64
-5.94
-5.05
-4.19
-3.45
-2.80
-2.16
-1.44
-0.64
0.15
0.81
1.31
1.67
2.04
2.49
3.02
3.54
3.91
4.04
3.96
3.75
3.47
3.17
2.85
2.58
2.51
2.88
3.84
5.42
7.40
9.40
11.01
11.89
11.91
11.14
9.80
8.21
6.71
5.51
4.73
4.30
4.07
3.85
3.57
3.24
2.96
2.83
2.82
2.82
2.68
2.29
1.68
0.99
0.39
0.01
-0.15
-0.21
-0.32
-0.64
-1.23
-2.05
-2.97
-3.86
-4.61
-5.18
-5.59
-5.83
-5.91
-5.80
-5.53
-5.24
-5.11
-5.35
-6.01
-6.96
-7.85
-8.26
-7.87
-6.59
-4.61
-2.35
-0.29
1.17
1.77
1.46
0.36
-1.26
-3.04
-4.56
-5.49
-5.59
-4.83
-3.36
-1.51
0.33
1.77
2.52
2.43
1.54
0.09
-1.60
-3.14
-4.24
-4.72
-4.59
-3.97
-3.09
-2.17
-1.43
-1.00
-0.92
-1.07
-1.25
-1.24
-0.84
0.00
1.21
2.61
4.02
5.33
6.49
7.49
8.27
8.75
8.82
8.42
7.57
6.40
5.06
3.69
2.39
1.21
0.21
-0.58
-1.14
-1.45
-1.59
-1.68
-1.93
-2.50
-3.50
-4.88
-6.49
-8.05
-9.33
-10.12
-10.37
-10.15
-9.55
-8.66
-7.52
-6.13
-4.49
-2.64
-0.71
1.17
2.86
4.33
5.58
6.70
7.79
8.90
10.05
11.15
12.10
12.76
13.02
12.77
11.92
10.43
8.37
5.91
3.38
1.17
-0.41
-1.23
-1.41
-1.28
-1.22
-1.54
-2.36
-3.60
-5.09
-6.62
-8.01
-9.13
-9.86
-10.08
-9.69
-8.62
-6.97
-4.99
-3.07
-1.62
-0.90
-0.91
-1.35
-1.73
-1.62
-0.79
0.69
2.51
4.27
5.64
6.43
6.64
6.37
5.79
5.11
4.48
4.02
3.73
3.52
3.22
2.68
1.81
0.59
-0.88
-2.44
-3.91
-5.16
-6.11
-6.75
-7.13
-7.24
-7.05
-6.47
-5.43
-3.95
-2.15
-0.24
1.60
3.27
4.71
5.92
6.86
7.43
7.55
7.19
6.41
5.38
4.28
3.31
2.63
2.27
2.19
2.24
2.23
1.99
1.42
0.58
-0.41
-1.38
-2.21
-2.82
-3.23
-3.46
-3.60
-3.73
-3.96
-4.33
-4.85
-5.39
-5.76
-5.80
-5.42
-4.67
-3.70
-2.65
-1.61
-0.60
0.41
1.46
2.51
3.47
4.15
4.42
4.20
3.51
2.49
1.33
0.24
-0.63
-1.18
-1.35
-1.14
-0.62
0.08
0.75
1.18
1.20
0.78
0.03
-0.87
-1.71
-2.45
-3.11
-3.82
-4.66
-5.57
-6.38
-6.81
-6.64
-5.72
-4.09
-1.93
0.43
2.66
4.49
5.80
6.67
7.28
7.84
8.47
9.16
9.79
10.19
10.29
10.08
9.63
9.07
8.45
7.74
6.87
5.74
4.30
2.60
0.75
-1.07
-2.67
-3.90
-4.67
-5.03
-5.13
-5.15
-5.26
-5.57
-6.12
-6.91
-7.93
-9.08
-10.23
-11.18
-11.67
-11.51
-10.63
-9.13
-7.28
-5.34
-3.51
-1.90
-0.49
0.75
1.78
2.56
3.02
3.14
2.96
2.57
2.03
1.42
0.73
-0.01
-0.75
-1.36
-1.72
-1.75
-1.45
-0.91
-0.29
0.23
0.52
0.51
0.20
-0.31
-0.92
-1.55
-2.17
-2.80
-3.46
-4.15
-4.75
-5.13
-5.14
-4.71
-3.89
-2.83
-1.70
-0.65
0.24
0.92
1.42
1.73
1.89
1.90
1.76
1.50
1.12
0.68
0.23
-0.16
-0.43
-0.53
-0.45
-0.21
0.10
0.40
0.63
0.76
0.76
0.64
0.40
0.08
-0.32
-0.75
-1.17
-1.55
-1.87
-2.14
-2.37
-2.56
-2.69
-2.73
-2.64
-2.41
-2.03
-1.55
-0.98
-0.33
0.42
1.28
2.27
3.35
4.47
5.52
6.36
6.88
6.99
6.70
6.06
5.22
4.34
3.61
3.15
3.04
3.22
3.58
4.01
4.39
4.67
4.87
5.03
5.17
5.34
5.56
5.88
6.33
6.90
7.49
7.98
8.22
8.18
7.94
7.71
7.67
7.89
8.34
8.90
9.49
10.10
10.79
11.58
12.37
12.95
13.05
12.47
11.18
9.33
7.15
4.88
2.68
0.65
-1.10
-2.49
-3.43
-3.94
-4.08
-4.02
-3.89
-3.74
-3.52
-3.18
-2.77
-2.50
-2.70
-3.70
-5.67
-8.49
-11.83
-15.18
-18.04
-20.09
-21.17
-21.34
-20.76
-19.66
-18.28
-16.80
-15.35
-13.95
-12.59
-11.22
-9.79
-8.31
-6.81
-5.37
-4.05
-2.93
-2.01
-1.27
-0.64
-0.03
0.65
1.46
2.40
3.39
4.31
5.02
5.43
5.50
5.27
4.83
4.30
3.79
3.39
3.12
2.94
2.71
2.29
1.56
0.55
-0.56
-1.48
-1.91
-1.67
-0.80
0.48
1.86
3.03
3.79
4.09
3.96
3.48
2.72
1.75
0.71
-0.22
-0.80
-0.92
-0.59
-0.06
0.31
0.21
-0.51
-1.73
-3.19
-4.59
-5.82
-6.89
-7.92
-8.98
-10.00
-10.77
-11.09
-10.89
-10.29
-9.56
-8.92
-8.44
-7.94
-7.11
-5.72
-3.71
-1.36
0.95
2.83
4.11
4.91
5.49
6.19
7.22
8.58
10.09
11.51
12.59
13.17
13.22
12.80
12.09
11.27
10.49
9.88
9.46
9.23
9.10
8.95
8.70
8.29
7.78
7.33
7.17
7.47
8.27
9.36
10.36
10.79
10.31
8.87
6.71
4.34
2.29
0.95
0.45
0.70
1.45
2.38
3.24
3.80
3.91
3.45
2.36
0.69
-1.41
-3.70
-5.95
-7.99
-9.72
-11.15
-12.34
-13.35
-14.22
-14.96
-15.55
-15.93
-16.07
-15.95
-15.62
-15.17
-14.71
-14.32
-14.01
-13.71
-13.34
-12.82
-12.14
-11.28
-10.27
-9.04
-7.42
-5.15
-1.97
2.16
6.96
11.82
15.91
18.47
19.12
18.00
15.76
13.24
11.23
10.19
10.18
10.93
11.96
12.78
12.95
12.26
10.73
8.64
6.44
4.55
3.18
2.21
1.24
-0.25
-2.60
-5.84
-9.62
-13.36
-16.45
-18.44
-19.08
-18.37
-16.57
-14.15
-11.76
-10.05
-9.36
-9.48
-9.63
-8.76
-6.10
-1.70
3.38
7.37
8.56
6.01
0.00
-8.13
-16.53
-23.58
-28.34
-30.71
-31.08
-30.08
-28.17
-25.64
-22.64
-19.34
-16.04
-13.04
-10.61
-8.82
-7.54
-6.51
-5.42
-4.03
-2.14
0.35
3.47
7.10
10.93
14.48
17.23
18.81
19.11
18.42
17.20
15.91
14.74
13.57
12.09
10.02
7.30
4.18
1.12
-1.36
-2.88
-3.31
-2.77
-1.62
-0.32
0.69
1.06
0.63
-0.52
-2.12
-3.69
-4.72
-4.74
-3.54
-1.19
1.91
5.13
7.81
9.51
10.09
9.79
9.06
8.39
8.14
8.49
9.49
11.10
13.19
15.50
17.58
18.88
18.88
17.36
14.53
10.94
7.32
4.30
2.15
0.78
-0.17
-1.12
-2.40
-4.18
-6.44
-9.08
-11.87
-14.59
-17.03
-19.00
-20.41
-21.20
-21.36
-20.94
-20.07
-18.90
-17.55
-16.02
-14.16
-11.67
-8.28
-3.89
1.35
7.06
12.66
17.57
21.28
23.33
23.43
21.43
17.50
12.15
6.24
0.81
-3.19
-5.14
-4.93
-3.02
-0.17
2.74
5.01
6.28
6.60
6.29
5.82
5.57
5.72
6.21
6.81
7.20
7.12
6.39
5.04
3.26
1.46
0.17
-0.10
0.90
3.06
5.87
8.63
10.78
12.05
12.60
12.76
12.75
12.52
11.80
10.33
8.08
5.38
2.73
0.58
-0.92
-1.90
-2.63
-3.32
-3.99
-4.51
-4.75
-4.67
-4.38
-4.07
-3.91
-3.93
-4.11
-4.31
-4.44
-4.42
-4.21
-3.78
-3.14
-2.27
-1.17
0.13
1.63
3.29
5.04
6.74
8.23
9.33
9.90
9.80
8.91
7.08
4.31
0.76
-3.10
-6.54
-8.87
-9.66
-9.03
-7.55
-5.99
-4.88
-4.33
-4.02
-3.49
-2.42
-0.81
1.11
3.02
4.71
6.09
7.10
7.63
7.45
6.38
4.43
1.94
-0.48
-2.14
-2.54
-1.57
0.42
2.84
5.06
6.68
7.62
8.07
8.29
8.50
8.71
8.81
8.59
7.88
6.57
4.69
2.38
-0.09
-2.37
-4.13
-5.19
-5.60
-5.69
-5.96
-6.86
-8.60
-11.06
-13.82
-16.37
-18.26
-19.32
-19.59
-19.21
-18.33
-16.96
-15.07
-12.65
-9.83
-6.82
-3.86
-1.11
1.39
3.68
5.79
7.67
9.23
10.39
11.14
11.58
11.79
11.77
11.44
10.72
9.61
8.31
7.12
6.32
6.00
6.01
6.05
5.84
5.32
4.63
4.08
3.90
4.11
4.56
4.94
5.04
4.79
4.35
3.95
3.75
3.75
3.80
3.74
3.52
3.27
3.25
3.63
4.40
5.30
5.97
6.16
5.78
4.93
3.74
2.27
0.46
-1.77
-4.40
-7.27
-10.10
-12.65
-14.76
-16.42
-17.66
-18.52
-19.00
-19.20
-19.27
-19.49
-20.08
-21.16
-22.62
-24.22
-25.70
-26.86
-27.63
-27.92
-27.52
-26.05
-23.00
-17.97
-10.91
-2.17
7.44
17.00
25.67
32.95
38.70
43.02
46.07
47.91
48.49
47.83
46.07
43.57
40.79
38.13
35.75
33.57
31.33
28.78
25.84
22.60
19.25
16.00
12.95
10.17
7.69
5.57
3.82
2.38
1.07
-0.32
-1.96
-3.92
-6.15
-8.56
-11.07
-13.56
-15.83
-17.50
-18.13
-17.31
-15.01
-11.59
-7.86
-4.74
-2.96
-2.78
-3.93
-5.80
-7.68
-9.11
-9.93
-10.24
-10.31
-10.31
-10.34
-10.42
-10.56
-10.84
-11.43
-12.45
-13.93
-15.70
-17.46
-18.80
-19.40
-19.11
-18.00
-16.34
-14.52
-12.89
-11.69
-11.01
-10.77
-10.76
-10.65
-10.04
-8.53
-5.90
-2.23
2.04
6.14
9.26
10.81
10.68
9.26
7.23
5.30
3.89
3.01
2.39
1.65
0.55
-0.88
-2.36
-3.53
-4.14
-4.13
-3.68
-3.03
-2.37
-1.76
-1.16
-0.50
0.19
0.74
0.94
0.62
-0.21
-1.39
-2.60
-3.50
-3.86
-3.54
-2.53
-0.99
0.82
2.51
3.67
4.00
3.40
2.10
0.50
-0.91
-1.76
-1.90
-1.43
-0.60
0.35
1.17
1.67
1.69
1.16
0.11
-1.24
-2.58
-3.55
-3.89
-3.57
-2.69
-1.54
-0.33
0.78
1.78
2.71
3.70
4.79
5.97
7.14
8.09
8.54
8.20
6.89
4.60
1.61
-1.60
-4.46
-6.44
-7.30
-7.13
-6.23
-5.06
-3.98
-3.17
-2.63
-2.25
-1.92
-1.61
-1.38
-1.32
-1.47
-1.82
-2.25
-2.67
-2.98
-3.19
-3.32
-3.40
-3.45
-3.46
-3.42
-3.35
-3.34
-3.47
-3.76
-4.18
-4.63
-5.03
-5.32
-5.50
-5.60
-5.68
-5.73
-5.74
-5.66
-5.48
-5.18
-4.79
-4.34
-3.87
-3.37
-2.85
-2.28
-1.70
-1.16
-0.74
-0.54
-0.60
-0.88
-1.25
-1.56
-1.66
-1.48
-1.03
-0.38
0.39
1.20
2.05
2.92
3.76
4.48
4.91
4.94
4.57
3.93
3.26
2.75
2.50
2.43
2.36
2.11
1.65
1.09
0.64
0.53
0.88
1.67
2.81
4.15
5.52
6.81
7.88
8.68
9.17
9.39
9.45
9.46
9.52
9.63
9.71
9.65
9.28
8.52
7.31
5.69
3.82
1.94
0.32
-0.82
-1.37
-1.36
-0.91
-0.21
0.56
1.24
1.63
1.55
0.86
-0.49
-2.34
-4.41
-6.30
-7.67
-8.31
-8.20
-7.43
-6.19
-4.67
-3.07
-1.55
-0.27
0.64
1.09
1.06
0.62
-0.08
-0.90
-1.65
-2.21
-2.50
-2.50
-2.27
-1.90
-1.51
-1.21
-1.05
-1.03
-1.08
-1.10
-1.00
-0.79
-0.54
-0.35
-0.36
-0.62
-1.15
-1.88
-2.69
-3.42
-3.94
-4.14
-3.97
-3.42
-2.54
-1.42
-0.14
1.22
2.62
3.99
5.25
6.29
6.99
7.31
7.32
7.18
7.08
7.10
7.23
7.32
7.24
6.90
6.35
5.75
5.27
4.98
4.86
4.74
4.47
3.95
3.19
2.30
1.40
0.53
-0.34
-1.27
-2.34
-3.52
-4.73
-5.85
-6.78
-7.44
-7.78
-7.76
-7.36
-6.61
-5.58
-4.43
-3.31
-2.34
-1.61
-1.13
-0.91
-0.97
-1.35
-2.00
-2.82
-3.63
-4.22
-4.46
-4.35
-3.96
-3.48
-3.07
-2.83
-2.79
-2.95
-3.23
-3.59
-3.95
-4.27
-4.55
-4.84
-5.18
-5.64
-6.23
-6.90
-7.56
-8.10
-8.39
-8.31
-7.74
-6.63
-4.99
-2.95
-0.70
1.50
3.43
4.98
6.09
6.82
7.24
7.43
7.41
7.16
6.71
6.08
5.39
4.77
4.34
4.14
4.14
4.28
4.46
4.62
4.72
4.70
4.51
4.06
3.34
2.39
1.34
0.31
-0.63
-1.49
-2.34
-3.14
-3.83
-4.22
-4.20
-3.73
-2.90
-1.87
-0.81
0.20
1.13
2.01
2.82
3.54
4.09
4.47
4.70
4.87
5.07
5.30
5.53
5.67
5.67
5.56
5.46
5.50
5.75
6.18
6.65
7.00
7.10
6.93
6.51
5.89
5.10
4.17
3.17
2.20
1.38
0.77
0.35
-0.00
-0.43
-1.00
-1.69
-2.33
-2.74
-2.76
-2.33
-1.51
-0.48
0.55
1.39
1.90
2.02
1.75
1.19
0.44
-0.35
-1.06
-1.62
-2.01
-2.29
-2.53
-2.85
-3.32
-3.99
-4.85
-5.85
-6.89
-7.85
-8.61
-9.10
-9.29
-9.27
-9.20
-9.23
-9.52
-10.12
-10.96
-11.82
-12.41
-12.44
-11.72
-10.30
-8.42
-6.39
-4.50
-2.90
-1.54
-0.31
0.90
2.12
3.25
4.14
4.68
4.83
4.69
4.41
4.14
3.97
3.90
3.86
3.77
3.63
3.53
3.65
4.15
5.10
6.42
7.91
9.30
10.31
10.71
10.38
9.32
7.68
5.72
3.76
2.07
0.83
0.04
-0.41
-0.70
-0.99
-1.32
-1.63
-1.80
-1.68
-1.24
-0.61
0.00
0.31
0.08
-0.73
-2.06
-3.67
-5.33
-6.81
-7.93
-8.58
-8.66
-8.13
-7.06
-5.63
-4.09
-2.73
-1.69
-1.00
-0.56
-0.20
0.19
0.64
1.12
1.56
1.97
2.39
2.94
3.72
4.74
5.94
7.12
8.04
8.43
8.14
7.13
5.56
3.72
2.00
0.73
0.14
0.25
0.88
1.72
2.39
2.58
2.12
1.02
-0.49
-2.10
-3.48
-4.42
-4.87
-4.88
-4.62
-4.22
-3.83
-3.52
-3.35
-3.29
-3.26
-3.09
-2.60
-1.70
-0.42
1.07
2.55
3.79
4.68
5.20
5.36
5.20
4.83
4.34
3.88
3.57
3.46
3.50
3.57
3.59
3.59
3.68
3.95
4.34
4.58
4.29
3.17
1.18
-1.38
-3.99
-6.09
-7.33
-7.67
-7.35
-6.76
-6.25
-6.05
-6.14
-6.37
-6.49
-6.28
-5.66
-4.71
-3.60
-2.55
-1.69
-1.02
-0.41
0.24
0.96
1.68
2.26
2.61
2.68
2.47
2.00
1.27
0.33
-0.65
-1.42
-1.71
-1.34
-0.34
1.06
2.52
3.73
4.52
4.87
4.83
4.48
3.86
3.03
2.07
1.19
0.60
0.47
0.86
1.59
2.36
2.79
2.64
1.90
0.77
-0.35
-1.08
-1.19
-0.65
0.38
1.63
2.79
3.62
3.94
3.73
3.07
2.19
1.37
0.89
0.89
1.35
2.07
2.77
3.18
3.14
2.62
1.72
0.60
-0.58
-1.72
-2.78
-3.75
-4.60
-5.27
-5.66
-5.66
-5.20
-4.30
-3.06
-1.62
-0.12
1.31
2.51
3.30
3.51
3.03
1.89
0.28
-1.52
-3.19
-4.51
-5.37
-5.76
-5.72
-5.29
-4.47
-3.30
-1.86
-0.28
1.28
2.77
4.25
5.86
7.75
9.91
12.16
14.21
15.75
16.58
16.68
16.15
15.17
13.87
12.39
10.82
9.32
8.01
6.93
5.97
4.91
3.48
1.61
-0.56
-2.63
-4.19
-4.95
-4.94
-4.47
-4.00
-3.88
-4.26
-5.00
-5.84
-6.55
-7.07
-7.46
-7.88
-8.49
-9.33
-10.36
-11.44
-12.37
-12.96
-13.03
-12.52
-11.50
-10.16
-8.74
-7.44
-6.35
-5.46
-4.73
-4.12
-3.60
-3.18
-2.82
-2.44
-1.96
-1.36
-0.69
-0.03
0.52
0.94
1.27
1.56
1.84
2.08
2.23
2.25
2.17
2.04
1.94
1.91
1.94
1.98
1.96
1.83
1.57
1.15
0.60
-0.04
-0.64
-1.08
-1.21
-0.99
-0.45
0.30
1.11
1.87
2.54
3.12
3.62
4.00
4.22
4.23
4.02
3.64
3.21
2.83
2.53
2.30
2.08
1.83
1.54
1.26
1.05
0.97
0.99
1.03
0.99
0.83
0.58
0.32
0.08
-0.19
-0.61
-1.30
-2.25
-3.31
-4.26
-4.90
-5.17
-5.14
-4.94
-4.66
-4.29
-3.75
-2.99
-2.06
-1.06
-0.12
0.68
1.35
1.94
2.48
2.90
3.13
3.08
2.76
2.28
1.77
1.35
1.03
0.74
0.37
-0.16
-0.86
-1.63
-2.34
-2.91
-3.28
-3.53
-3.71
-3.89
-4.08
-4.26
-4.38
-4.44
-4.49
-4.59
-4.80
-5.11
-5.45
-5.68
-5.61
-5.14
-4.20
-2.88
-1.32
0.24
1.60
2.59
3.13
3.27
3.11
2.81
2.52
2.31
2.21
2.18
2.20
2.23
2.26
2.28
2.28
2.24
2.13
1.97
1.74
1.49
1.25
1.05
0.92
0.85
0.85
0.87
0.84
0.69
0.37
-0.12
-0.70
-1.23
-1.58
-1.63
-1.39
-0.88
-0.17
0.68
1.66
2.76
3.96
5.15
6.19
6.88
7.12
6.89
6.30
5.54
4.77
4.10
3.57
3.14
2.78
2.45
2.14
1.88
1.64
1.41
1.16
0.87
0.51
0.07
-0.45
-1.06
-1.72
-2.38
-2.98
-3.48
-3.88
-4.26
-4.72
-5.35
-6.10
-6.82
-7.26
-7.24
-6.68
-5.69
-4.48
-3.28
-2.25
-1.47
-0.94
-0.62
-0.44
-0.35
-0.27
-0.13
0.11
0.45
0.81
1.08
1.17
1.08
0.91
0.76
0.69
0.68
0.57
0.20
-0.53
-1.54
-2.62
-3.50
-3.98
-4.05
-3.83
-3.53
-3.32
-3.30
-3.45
-3.68
-3.92
-4.08
-4.11
-3.93
-3.49
-2.76
-1.73
-0.43
1.05
2.59
4.06
5.30
6.17
6.59
6.58
6.26
5.79
5.33
4.93
4.60
4.30
4.01
3.80
3.72
3.79
3.96
4.11
4.17
4.13
4.05
4.00
3.98
3.91
3.62
3.01
2.04
0.83
-0.42
-1.51
-2.26
-2.57
-2.43
-1.98
-1.42
-0.98
-0.89
-1.22
-1.96
-2.97
-4.06
-5.05
-5.77
-6.16
-6.20
-5.94
-5.52
-5.05
-4.65
-4.38
-4.22
-4.16
-4.17
-4.21
-4.29
-4.40
-4.54
-4.71
-4.91
-5.14
-5.38
-5.64
-5.88
-6.09
-6.20
-6.17
-5.95
-5.53
-4.97
-4.41
-3.99
-3.84
-3.95
-4.21
-4.39
-4.27
-3.65
-2.49
-0.85
1.09
3.11
4.97
6.51
7.61
8.22
8.37
8.13
7.61
6.94
6.24
5.59
5.04
4.56
4.14
3.72
3.27
2.79
2.25
1.65
1.01
0.38
-0.16
-0.53
-0.70
-0.69
-0.63
-0.70
-1.04
-1.70
-2.63
-3.72
-4.84
-5.89
-6.80
-7.48
-7.85
-7.81
-7.33
-6.42
-5.23
-3.93
-2.70
-1.68
-0.88
-0.28
0.18
0.57
0.93
1.27
1.60
1.92
2.23
2.51
2.77
2.96
3.04
2.94
2.61
2.03
1.29
0.55
0.06
-0.00
0.45
1.33
2.40
3.35
3.92
3.98
3.61
2.96
2.21
1.47
0.77
0.07
-0.58
-1.12
-1.40
-1.34
-0.93
-0.29
0.44
1.12
1.69
2.14
2.49
2.73
2.80
2.65
2.29
1.74
1.10
0.38
-0.43
-1.37
-2.44
-3.56
-4.59
-5.33
-5.69
-5.66
-5.37
-5.04
-4.86
-4.95
-5.36
-6.07
-7.00
-8.06
-9.09
-9.87
-10.14
-9.68
-8.41
-6.47
-4.20
-1.94
0.06
1.81
3.52
5.42
7.57
9.75
11.56
12.61
12.74
12.10
11.03
9.89
8.87
7.99
7.16
6.34
5.52
4.81
4.28
3.96
3.80
3.75
3.75
3.75
3.71
3.56
3.24
2.69
1.90
0.92
-0.14
-1.07
-1.63
-1.61
-0.90
0.41
2.01
3.51
4.59
5.11
5.26
5.36
5.73
6.52
7.60
8.67
9.37
9.45
8.78
7.40
5.41
2.99
0.42
-1.93
-3.67
-4.54
-4.48
-3.76
-2.79
-2.01
-1.68
-1.78
-2.14
-2.48
-2.66
-2.65
-2.55
-2.49
-2.55
-2.71
-2.86
-2.87
-2.60
-2.04
-1.28
-0.54
-0.09
-0.11
-0.64
-1.56
-2.70
-3.94
-5.22
-6.54
-7.86
-8.98
-9.57
-9.28
-7.88
-5.37
-1.99
1.85
5.69
9.14
11.98
14.09
15.51
16.35
16.81
17.04
17.17
17.25
17.24
17.02
16.52
15.66
14.50
13.14
11.75
10.43
9.24
8.14
7.05
5.97
4.93
4.02
3.28
2.70
2.16
1.54
0.77
-0.14
-1.18
-2.35
-3.74
-5.47
-7.66
-10.28
-13.16
-16.01
-18.47
-20.22
-21.00
-20.71
-19.38
-17.19
-14.44
-11.47
-8.61
-6.07
-3.98
-2.41
-1.39
-0.96
-1.15
-1.93
-3.19
-4.72
-6.25
-7.45
-8.08
-7.97
-7.14
-5.79
-4.25
-2.91
-2.09
-1.91
-2.23
-2.75
-3.05
-2.84
-2.02
-0.70
0.88
2.48
3.93
5.19
6.27
7.22
8.04
8.71
9.19
9.47
9.57
9.52
9.37
9.12
8.75
8.22
7.47
6.42
5.08
3.51
1.85
0.28
-1.04
-2.00
-2.62
-2.96
-3.10
-3.15
-3.21
-3.40
-3.83
-4.58
-5.65
-6.89
-8.01
-8.66
-8.57
-7.61
-5.93
-3.83
-1.72
0.03
1.22
1.78
1.82
1.51
1.08
0.71
0.53
0.59
0.84
1.19
1.55
1.86
2.07
2.20
2.27
2.25
2.12
1.82
1.30
0.56
-0.34
-1.25
-2.01
-2.49
-2.67
-2.59
-2.38
-2.17
-2.07
-2.15
-2.47
-3.07
-3.95
-5.02
-6.10
-6.93
-7.26
-6.93
-5.98
-4.60
-3.07
-1.63
-0.41
0.62
1.52
2.38
3.17
3.80
4.17
4.19
3.89
3.36
2.68
1.96
1.27
0.71
0.35
0.28
0.51
0.93
1.36
1.61
1.58
1.30
0.93
0.68
0.67
0.92
1.34
1.74
1.95
1.87
1.49
0.89
0.24
-0.32
-0.68
-0.80
-0.69
-0.45
-0.18
0.00
0.02
-0.17
-0.48
-0.76
-0.80
-0.41
0.46
1.73
3.12
4.35
5.20
5.58
5.55
5.24
4.80
4.29
3.75
3.21
2.68
2.21
1.77
1.33
0.87
0.40
-0.01
-0.27
-0.27
-0.02
0.36
0.70
0.79
0.53
-0.08
-0.88
-1.65
-2.23
-2.49
-2.48
-2.29
-2.07
-1.94
-1.92
-1.99
-2.03
-1.90
-1.50
-0.78
0.19
1.27
2.32
3.19
3.84
4.30
4.66
5.03
5.48
6.08
6.83
7.72
8.67
9.59
10.34
10.71
10.52
9.63
8.05
5.92
3.51
1.14
-0.95
-2.67
-4.06
-5.21
-6.20
-7.04
-7.68
-8.13
-8.50
-9.03
-9.96
-11.49
-13.65
-16.25
-18.95
-21.35
-23.02
-23.68
-23.23
-21.77
-19.53
-16.83
-13.96
-11.11
-8.40
-5.92
-3.75
-1.96
-0.55
0.58
1.69
3.06
4.96
7.42
10.27
13.15
15.67
17.57
18.76
19.34
19.46
19.23
18.69
17.80
16.54
14.96
13.21
11.49
9.97
8.76
7.88
7.27
6.80
6.34
5.78
5.03
4.08
2.98
1.85
0.83
0.02
-0.57
-1.08
-1.70
-2.62
-3.93
-5.53
-7.21
-8.65
-9.58
-9.82
-9.28
-8.01
-6.14
-3.93
-1.64
0.43
2.02
2.96
3.15
2.59
1.36
-0.36
-2.27
-4.00
-5.22
-5.76
-5.71
-5.35
-5.08
-5.14
-5.54
-6.06
-6.39
-6.35
-6.00
-5.61
-5.49
-5.82
-6.55
-7.39
-7.91
-7.71
-6.46
-4.03
-0.54
3.63
7.77
10.98
12.45
11.69
8.82
4.53
-0.12
-4.12
-6.80
-8.00
-8.00
-7.25
-6.24
-5.35
-4.86
-4.96
-5.69
-6.93
-8.37
-9.55
-10.06
-9.73
-8.68
-7.28
-6.06
-5.41
-5.51
-6.32
-7.59
-9.03
-10.41
-11.53
-12.26
-12.41
-11.78
-10.17
-7.47
-3.76
0.76
5.83
11.22
16.74
22.26
27.51
32.13
35.66
37.74
38.22
37.24
35.14
32.29
28.92
25.07
20.60
15.44
9.70
3.80
-1.64
-5.99
-8.82
-10.08
-10.11
-9.45
-8.64
-8.00
-7.58
-7.22
-6.81
-6.42
-6.27
-6.70
-7.84
-9.56
-11.42
-12.82
-13.26
-12.53
-10.78
-8.42
-5.95
-3.72
-1.79
-0.01
1.90
4.14
6.77
9.71
12.84
16.18
19.88
24.11
28.84
33.76
38.31
41.94
44.41
45.92
46.94
47.89
48.72
48.89
47.68
44.64
39.95
34.30
28.49
22.86
17.22
11.13
4.48
-2.12
-7.40
-10.05
-9.38
-5.77
-0.51
4.70
8.34
9.45
7.69
3.21
-3.55
-11.86
-20.74
-29.05
-35.70
-39.98
-41.86
-41.97
-41.43
-41.39
-42.58
-45.11
-48.47
-51.82
-54.38
-55.76
-56.00
-55.40
-54.30
-52.86
-51.09
-48.91
-46.29
-43.21
-39.55
-35.05
-29.40
-22.55
-14.88
-7.32
-1.02
3.06
4.60
4.09
2.52
0.89
-0.43
-1.93
-4.77
-10.27
-19.13
-30.91
-43.98
-55.90
-64.17
-67.09
-64.20
-56.41
-45.50
-33.52
-22.19
-12.55
-4.98
0.60
4.55
7.40
9.82
12.57
16.43
21.89
28.89
36.64
43.66
48.29
49.28
46.36
40.46
33.40
27.20
23.36
22.39
23.87
26.75
29.86
32.16
32.81
31.23
27.18
20.96
13.49
6.16
0.26
-3.50
-5.32
-6.05
-6.62
-7.50
-8.47
-8.93
-8.42
-7.03
-5.41
-4.43
-4.66
-6.05
-8.02
-9.74
-10.64
-10.54
-9.68
-8.37
-6.82
-4.93
-2.49
0.61
4.19
7.72
10.57
12.27
12.75
12.33
11.59
11.02
10.90
11.23
11.91
12.97
14.60
17.07
20.42
24.25
27.65
29.41
28.39
23.87
15.83
5.00
-7.24
-19.13
-28.90
-35.04
-36.66
-33.66
-26.75
-17.36
-7.32
1.48
7.48
9.83
8.54
4.51
-0.76
-5.62
-8.74
-9.47
-7.84
-4.40
0.10
4.93
9.52
13.38
16.13
17.52
17.57
16.65
15.43
14.72
15.07
16.61
18.89
21.15
22.56
22.57
21.07
18.29
14.74
10.92
7.30
4.27
2.15
1.13
1.18
1.94
2.78
2.95
1.91
-0.44
-3.75
-7.36
-10.65
-13.27
-15.26
-16.86
-18.29
-19.58
-20.46
-20.58
-19.70
-17.87
-15.45
-12.87
-10.48
-8.36
-6.34
-4.20
-1.80
0.72
3.10
5.04
6.43
7.39
8.25
9.40
11.10
13.36
15.99
18.70
21.23
23.42
25.16
26.36
26.90
26.64
25.52
23.62
21.21
18.71
16.47
14.72
13.45
12.44
11.41
10.09
8.38
6.35
4.21
2.26
0.73
-0.29
-0.92
-1.43
-2.14
-3.30
-4.97
-7.03
-9.28
-11.54
-13.75
-15.85
-17.70
-18.99
-19.24
-18.09
-15.47
-11.80
-7.89
-4.54
-2.25
-1.03
-0.53
-0.37
-0.35
-0.58
-1.20
-2.22
-3.33
-4.05
-4.02
-3.23
-2.08
-1.21
-1.20
-2.32
-4.45
-7.20
-10.11
-12.84
-15.21
-17.21
-18.83
-19.97
-20.42
-19.87
-18.14
-15.34
-11.89
-8.41
-5.46
-3.36
-2.08
-1.37
-0.94
-0.63
-0.40
-0.27
-0.21
-0.08
0.28
0.96
1.91
3.00
4.14
5.27
6.42
7.58
8.63
9.31
9.34
8.55
7.02
5.08
3.24
2.02
1.74
2.50
4.18
6.55
9.34
12.29
15.18
17.75
19.71
20.77
20.80
19.81
18.02
15.75
13.31
10.93
8.79
6.96
5.48
4.33
3.42
2.53
1.47
0.09
-1.58
-3.36
-4.96
-6.11
-6.67
-6.68
-6.37
-6.02
-5.92
-6.22
-6.93
-7.91
-8.92
-9.74
-10.15
-10.03
-9.37
-8.25
-6.89
-5.57
-4.53
-3.96
-3.86
-4.07
-4.39
-4.61
-4.68
-4.64
-4.57
-4.52
-4.47
-4.33
-4.05
-3.63
-3.22
-2.98
-3.07
-3.51
-4.17
-4.78
-5.04
-4.76
-3.98
-2.94
-1.97
-1.34
-1.12
-1.18
-1.31
-1.32
-1.12
-0.77
-0.34
0.13
0.60
1.04
1.34
1.39
1.14
0.66
0.16
-0.18
-0.26
-0.15
-0.02
-0.06
-0.35
-0.85
-1.45
-2.02
-2.49
-2.84
-3.05
-3.11
-2.97
-2.59
-1.96
-1.08
-0.05
0.99
1.84
2.32
2.35
1.97
1.36
0.74
0.30
0.06
-0.03
-0.09
-0.17
-0.23
-0.12
0.29
1.07
2.16
3.38
4.52
5.45
6.10
6.51
6.77
6.96
7.16
7.38
7.62
7.85
7.97
7.89
7.52
6.83
5.88
4.84
3.96
3.47
3.48
3.89
4.49
5.00
5.20
4.93
4.11
2.68
0.63
-1.95
-4.73
-7.16
-8.58
-8.49
-6.81
-3.97
-0.78
1.89
3.37
3.42
2.25
0.31
-1.76
-3.36
-3.99
-3.38
-1.50
1.35
4.65
7.71
9.93
10.94
10.68
9.37
7.41
5.26
3.27
1.64
0.42
-0.49
-1.26
-2.03
-2.93
-3.98
-5.09
-6.11
-6.83
-7.07
-6.82
-6.20
-5.49
-4.94
-4.62
-4.33
-3.66
-2.18
0.33
3.75
7.53
10.89
13.04
13.44
12.01
9.08
5.36
1.63
-1.51
-3.78
-5.27
-6.28
-7.15
-8.12
-9.22
-10.39
-11.49
-12.47
-13.32
-14.08
-14.75
-15.35
-15.83
-16.13
-16.22
-16.13
-15.92
-15.74
-15.72
-15.91
-16.19
-16.22
-15.59
-13.93
-11.16
-7.55
-3.64
-0.06
2.68
4.32
4.80
4.16
2.48
-0.07
-3.12
-6.01
-7.86
-7.90
-5.79
-1.84
3.08
7.84
11.48
13.58
14.27
14.09
13.71
13.65
14.11
15.06
16.29
17.48
18.30
18.43
17.71
16.20
14.29
12.58
11.71
12.10
13.74
16.11
18.37
19.60
19.18
16.99
13.42
9.28
5.49
2.85
1.78
2.28
3.98
6.27
8.52
10.26
11.23
11.35
10.63
9.16
7.05
4.47
1.64
-1.14
-3.60
-5.53
-6.89
-7.77
-8.37
-8.89
-9.42
-9.98
-10.52
-11.01
-11.51
-12.16
-13.06
-14.23
-15.50
-16.61
-17.27
-17.34
-16.82
-15.93
-14.86
-13.70
-12.37
-10.63
-8.21
-5.01
-1.19
2.83
6.54
9.48
11.41
12.36
12.53
12.21
11.67
11.12
10.79
10.88
11.61
13.13
15.36
17.99
20.46
22.10
22.36
20.98
18.12
14.27
10.19
6.65
4.24
3.15
3.19
3.88
4.64
5.03
4.82
3.96
2.47
0.40
-2.22
-5.27
-8.48
-11.46
-13.85
-15.50
-16.46
-17.01
-17.41
-17.82
-18.26
-18.64
-18.89
-18.98
-18.91
-18.72
-18.43
-18.06
-17.65
-17.22
-16.73
-16.07
-15.09
-13.68
-11.92
-10.00
-8.16
-6.52
-5.00
-3.29
-1.06
1.85
5.25
8.65
11.36
12.78
12.56
10.74
7.68
3.95
0.17
-3.15
-5.67
-7.21
-7.80
-7.62
-6.96
-6.14
-5.44
-5.08
-5.13
-5.54
-6.13
-6.72
-7.11
-7.21
-7.03
-6.69
-6.33
-6.11
-6.11
-6.39
-6.90
-7.51
-7.92
-7.77
-6.69
-4.49
-1.25
2.61
6.44
9.55
11.39
11.71
10.56
8.22
5.08
1.55
-2.01
-5.29
-8.08
-10.24
-11.68
-12.37
-12.35
-11.78
-10.88
-9.86
-8.78
-7.51
-5.74
-3.12
0.55
5.13
10.13
14.81
18.41
20.42
20.72
19.62
17.79
15.97
14.80
14.55
15.07
15.85
16.29
15.92
14.69
12.92
11.23
10.20
10.14
10.96
12.21
13.31
13.76
13.38
12.23
10.58
8.67
6.65
4.58
2.56
0.71
-0.76
-1.73
-2.24
-2.53
-2.91
-3.62
-4.72
-6.02
-7.18
-7.90
-8.00
-7.50
-6.54
-5.32
-4.07
-2.98
-2.21
-1.87
-2.00
-2.48
-3.13
-3.66
-3.86
-3.61
-2.99
-2.23
-1.63
-1.39
-1.58
-2.07
-2.69
-3.28
-3.81
-4.32
-4.92
-5.67
-6.59
-7.67
-8.87
-10.12
-11.34
-12.38
-13.08
-13.35
-13.19
-12.72
-12.10
-11.50
-10.97
-10.54
-10.20
-9.94
-9.73
-9.52
-9.23
-8.81
-8.29
-7.87
-7.79
-8.27
-9.38
-10.97
-12.77
-14.47
-15.82
-16.70
-17.14
-17.26
-17.27
-17.39
-17.73
-18.22
-18.63
-18.58
-17.79
-16.17
-14.02
-11.89
-10.36
-9.80
-10.22
-11.26
-12.42
-13.19
-13.21
-12.31
-10.47
-7.76
-4.41
-0.78
2.70
5.65
7.96
9.83
11.74
14.16
17.31
21.03
24.83
28.09
30.31
31.24
30.89
29.39
26.98
23.90
20.46
17.05
14.06
11.85
10.67
10.54
11.33
12.78
14.60
16.55
18.47
20.27
21.91
23.33
24.38
24.83
24.34
22.63
19.53
15.10
9.62
3.56
-2.51
-8.05
-12.61
-15.84
-17.57
-17.80
-16.71
-14.70
-12.25
-9.88
-8.03
-6.96
-6.74
-7.28
-8.34
-9.59
-10.67
-11.21
-10.95
-9.78
-7.84
-5.45
-3.02
-0.98
0.41
1.06
1.06
0.60
-0.12
-0.94
-1.81
-2.70
-3.61
-4.56
-5.53
-6.50
-7.44
-8.29
-8.94
-9.21
-8.91
-7.91
-6.22
-4.06
-1.78
0.26
1.80
2.82
3.50
4.13
4.95
6.08
7.45
8.92
10.34
11.70
13.03
14.39
15.76
16.93
17.59
17.41
16.23
14.13
11.41
8.58
6.15
4.58
4.12
4.76
6.26
8.18
9.93
10.98
10.94
9.65
7.22
3.98
0.31
-3.44
-7.01
-10.24
-12.98
-15.06
-16.25
-16.43
-15.59
-13.96
-11.90
-9.81
-8.00
-6.55
-5.36
-4.26
-3.09
-1.79
-0.41
1.00
2.36
3.65
4.90
6.09
7.21
8.18
8.91
9.30
9.27
8.83
8.10
7.26
6.53
6.03
5.77
5.61
5.37
4.91
4.21
3.40
2.72
2.44
2.76
3.82
5.59
7.94
10.61
13.26
15.45
16.81
17.07
16.20
14.46
12.36
10.45
9.20
8.78
8.96
9.30
9.28
8.55
7.07
5.08
2.92
0.94
-0.61
-1.61
-2.02
-1.83
-1.09
0.03
1.22
2.11
2.32
1.63
0.06
-2.12
-4.50
-6.60
-8.09
-8.75
-8.57
-7.71
-6.49
-5.26
-4.36
-4.01
-4.21
-4.78
-5.44
-5.97
-6.28
-6.40
-6.43
-6.38
-6.14
-5.53
-4.36
-2.57
-0.25
2.41
5.13
7.63
9.61
10.83
11.09
10.36
8.73
6.40
3.66
0.76
-2.08
-4.69
-6.94
-8.72
-9.96
-10.63
-10.70
-10.15
-8.98
-7.24
-5.09
-2.79
-0.62
1.19
2.57
3.58
4.35
4.92
5.27
5.28
4.87
4.01
2.83
1.48
0.09
-1.27
-2.57
-3.76
-4.78
-5.47
-5.70
-5.41
-4.73
-3.94
-3.38
-3.37
-4.04
-5.33
-6.99
-8.69
-10.10
-10.99
-11.25
-10.87
-9.94
-8.59
-7.06
-5.54
-4.26
-3.30
-2.67
-2.23
-1.84
-1.39
-0.88
-0.38
-0.01
0.14
0.06
-0.22
-0.63
-1.05
-1.33
-1.28
-0.74
0.37
2.02
4.07
6.30
8.54
10.70
12.76
14.76
16.67
18.39
19.79
20.70
20.98
20.55
19.41
17.61
15.26
12.51
9.52
6.46
3.46
0.67
-1.73
-3.57
-4.75
-5.31
-5.42
-5.42
-5.65
-6.34
-7.47
-8.79
-9.99
-10.80
-11.14
-11.11
-10.90
-10.61
-10.21
-9.59
-8.63
-7.34
-5.88
-4.46
-3.22
-2.14
-1.08
0.10
1.40
2.62
3.45
3.61
3.00
1.75
0.17
-1.37
-2.61
-3.43
-3.83
-3.85
-3.53
-2.85
-1.80
-0.41
1.22
2.87
4.29
5.23
5.55
5.27
4.53
3.57
2.60
1.76
1.08
0.52
-0.00
-0.57
-1.24
-2.06
-3.04
-4.18
-5.42
-6.64
-7.68
-8.40
-8.74
-8.69
-8.35
-7.82
-7.21
-6.61
-6.07
-5.59
-5.13
-4.62
-3.95
-3.03
-1.79
-0.23
1.63
3.65
5.66
7.42
8.70
9.28
9.12
8.29
7.01
5.50
3.95
2.42
0.88
-0.67
-2.19
-3.52
-4.47
-4.87
-4.64
-3.84
-2.62
-1.16
0.33
1.64
2.56
2.91
2.61
1.73
0.49
-0.76
-1.71
-2.15
-2.03
-1.49
-0.70
0.15
1.04
1.99
3.09
4.38
5.79
7.19
8.42
9.38
10.06
10.53
10.87
11.08
11.11
10.83
10.11
8.88
7.14
4.96
2.49
-0.09
-2.59
-4.80
-6.55
-7.74
-8.38
-8.55
-8.44
-8.22
-8.02
-7.91
-7.91
-8.04
-8.28
-8.62
-9.00
-9.31
-9.41
-9.21
-8.70
-7.91
-6.92
-5.81
-4.62
-3.40
-2.17
-0.97
0.13
1.11
1.95
2.67
3.30
3.80
4.16
4.36
4.47
4.55
4.69
4.90
5.09
5.15
4.99
4.59
4.07
3.57
3.24
3.15
3.25
3.34
3.18
2.52
1.22
-0.70
-3.09
-5.68
-8.19
-10.41
-12.20
-13.47
-14.20
-14.36
-13.92
-12.88
-11.29
-9.29
-7.05
-4.80
-2.74
-1.01
0.32
1.27
1.94
2.43
2.86
3.27
3.65
3.95
4.13
4.18
4.12
3.97
3.74
3.42
3.01
2.50
1.92
1.28
0.63
-0.04
-0.75
-1.55
-2.44
-3.39
-4.33
-5.14
-5.68
-5.83
-5.55
-4.87
-3.92
-2.87
-1.89
-1.08
-0.46
-0.00
0.34
0.57
0.68
0.64
0.50
0.35
0.33
0.55
1.02
1.71
2.51
3.33
4.11
4.81
5.38
5.77
5.89
5.67
5.07
4.15
3.05
1.96
1.01
0.25
-0.42
-1.15
-2.04
-3.05
-4.03
-4.73
-5.01
-4.83
-4.32
-3.67
-3.02
-2.43
-1.87
-1.34
-0.87
-0.55
-0.47
-0.69
-1.12
-1.68
-2.26
-2.80
-3.30
-3.79
-4.30
-4.78
-5.18
-5.40
-5.36
-5.04
-4.41
-3.52
-2.46
-1.31
-0.23
0.65
1.23
1.48
1.43
1.20
0.92
0.68
0.60
0.77
1.28
2.21
3.60
5.37
7.37
9.38
11.24
12.84
14.18
15.27
16.15
16.75
16.98
16.72
15.92
14.55
12.68
10.41
7.95
5.53
3.39
1.72
0.58
-0.08
-0.40
-0.52
-0.56
-0.62
-0.79
-1.23
-2.08
-3.41
-5.17
-7.18
-9.13
-10.74
-11.79
-12.18
-11.95
-11.21
-10.15
-8.96
-7.80
-6.73
-5.69
-4.56
-3.23
-1.70
-0.10
1.39
2.59
3.45
4.02
4.41
4.68
4.88
4.97
4.94
4.80
4.57
4.23
3.79
3.24
2.68
2.34
2.46
3.26
4.73
6.63
8.49
9.81
10.17
9.40
7.58
5.02
2.15
-0.63
-3.02
-4.93
-6.36
-7.35
-7.89
-7.89
-7.30
-6.15
-4.65
-3.14
-1.98
-1.36
-1.26
-1.48
-1.74
-1.82
-1.64
-1.24
-0.68
-0.05
0.55
1.05
1.34
1.35
1.10
0.64
0.09
-0.42
-0.85
-1.15
-1.37
-1.55
-1.72
-1.93
-2.17
-2.41
-2.60
-2.69
-2.63
-2.47
-2.28
-2.13
-2.09
-2.17
-2.35
-2.53
-2.54
-2.19
-1.27
0.31
2.43
4.74
6.75
7.98
8.19
7.36
5.75
3.69
1.45
-0.81
-2.98
-4.96
-6.60
-7.73
-8.25
-8.19
-7.72
-7.05
-6.37
-5.77
-5.25
-4.75
-4.17
-3.42
-2.44
-1.14
0.57
2.74
5.32
8.16
11.02
13.70
16.19
18.66
21.37
24.46
27.83
31.13
33.87
35.66
36.34
36.01
34.93
33.39
31.57
29.55
27.36
24.95
22.26
19.19
15.59
11.37
6.58
1.46
-3.60
-8.15
-11.85
-14.55
-16.32
-17.42
-18.14
-18.73
-19.27
-19.70
-19.91
-19.78
-19.33
-18.68
-18.01
-17.52
-17.34
-17.48
-17.82
-18.15
-18.27
-17.97
-17.11
-15.68
-13.79
-11.68
-9.67
-8.10
-7.17
-6.91
-7.13
-7.50
-7.69
-7.49
-6.88
-6.02
-5.17
-4.56
-4.36
-4.55
-5.03
-5.56
-5.95
-6.05
-5.85
-5.44
-4.93
-4.41
-3.86
-3.19
-2.34
-1.30
-0.19
0.84
1.60
2.01
2.06
1.82
1.40
0.92
0.46
0.08
-0.19
-0.39
-0.55
-0.70
-0.87
-1.06
-1.23
-1.28
-1.11
-0.59
0.38
1.79
3.47
5.13
6.40
6.98
6.75
5.85
4.57
3.26
2.19
1.51
1.17
1.08
1.13
1.27
1.47
1.72
2.01
2.24
2.28
2.03
1.48
0.69
-0.16
-0.84
-1.19
-1.16
-0.79
-0.20
0.47
1.06
1.47
1.54
1.18
0.37
-0.77
-1.99
-2.96
-3.43
-3.32
-2.79
-2.12
-1.57
-1.32
-1.35
-1.59
-1.91
-2.25
-2.57
-2.86
-3.07
-3.14
-3.06
-2.88
-2.71
-2.69
-2.88
-3.27
-3.74
-4.18
-4.50
-4.74
-5.04
-5.52
-6.22
-7.04
-7.74
-8.06
-7.80
-6.93
-5.58
-3.97
-2.30
-0.75
0.55
1.47
1.90
1.80
1.28
0.65
0.41
0.98
2.61
5.16
8.14
10.90
12.86
13.63
13.16
11.57
9.10
5.99
2.46
-1.23
-4.73
-7.54
-9.19
-9.34
-7.97
-5.44
-2.40
0.41
2.41
3.35
3.34
2.70
1.82
1.03
0.50
0.28
0.37
0.74
1.34
2.11
2.97
3.80
4.48
4.87
4.83
4.31
3.39
2.25
1.18
0.40
0.02
0.02
0.27
0.64
1.05
1.48
1.87
2.17
2.25
2.00
1.31
0.17
-1.35
-3.10
-4.83
-6.30
-7.30
-7.75
-7.71
-7.36
-6.87
-6.32
-5.68
-4.85
-3.79
-2.60
-1.46
-0.62
-0.24
-0.34
-0.84
-1.55
-2.25
-2.79
-3.11
-3.23
-3.28
-3.35
-3.48
-3.55
-3.37
-2.76
-1.64
-0.13
1.56
3.15
4.40
5.24
5.68
5.83
5.77
5.56
5.21
4.66
3.83
2.67
1.22
-0.36
-1.88
-3.13
-4.07
-4.75
-5.39
-6.15
-7.07
-8.02
-8.71
-8.88
-8.33
-7.03
-5.12
-2.81
-0.37
1.88
3.65
4.65
4.75
4.01
2.76
1.52
0.84
1.15
2.55
4.83
7.51
10.05
12.05
13.27
13.70
13.44
12.63
11.42
9.97
8.46
7.05
5.80
4.68
3.52
2.19
0.67
-0.90
-2.27
-3.17
-3.49
-3.30
-2.79
-2.21
-1.72
-1.38
-1.15
-0.98
-0.86
-0.81
-0.83
-0.89
-0.94
-0.89
-0.72
-0.48
-0.28
-0.18
-0.23
-0.40
-0.62
-0.88
-1.18
-1.57
-2.07
-2.63
-3.15
-3.51
-3.57
-3.31
-2.79
-2.17
-1.61
-1.23
-1.05
-1.03
-1.06
-1.02
-0.90
-0.72
-0.57
-0.58
-0.81
-1.29
-1.94
-2.65
-3.25
-3.63
-3.71
-3.49
-3.02
-2.37
-1.60
-0.82
-0.11
0.38
0.54
0.33
-0.14
-0.65
-0.92
-0.72
0.02
1.19
2.58
3.99
5.26
6.34
7.21
7.85
8.23
8.29
7.93
7.15
6.01
4.67
3.33
2.18
1.30
0.67
0.21
-0.16
-0.45
-0.60
-0.50
-0.06
0.77
2.00
3.68
5.82
8.41
11.31
14.24
16.77
18.54
19.35
19.28
18.63
17.82
17.19
16.93
17.00
17.19
17.28
17.02
16.34
15.24
13.83
12.26
10.68
9.18
7.75
6.32
4.77
3.01
0.98
-1.31
-3.80
-6.36
-8.85
-11.15
-13.18
-14.89
-16.24
-17.22
-17.82
-18.08
-18.10
-17.96
-17.75
-17.49
-17.12
-16.58
-15.87
-15.13
-14.55
-14.34
-14.58
-15.21
-16.08
-17.02
-17.91
-18.70
-19.35
-19.84
-20.11
-20.14
-19.97
-19.68
-19.35
-19.08
-18.90
-18.85
-18.97
-19.33
-19.93
-20.70
-21.47
-21.97
-22.00
-21.52
-20.70
-19.89
-19.51
-19.84
-20.92
-22.46
-23.92
-24.62
-23.87
-21.13
-16.09
-8.81
0.22
10.19
20.08
29.02
36.50
42.50
47.38
51.61
55.47
58.95
61.76
63.57
64.16
63.55
61.91
59.38
56.04
51.87
46.84
41.08
34.91
28.79
23.12
18.08
13.51
8.99
4.09
-1.42
-7.40
-13.34
-18.66
-22.87
-25.86
-27.78
-28.95
-29.62
-29.87
-29.63
-28.79
-27.34
-25.43
-23.31
-21.27
-19.50
-18.12
-17.15
-16.50
-16.06
-15.71
-15.34
-14.91
-14.43
-13.96
-13.54
-13.15
-12.75
-12.28
-11.74
-11.17
-10.56
-9.88
-9.00
-7.79
-6.17
-4.15
-1.78
0.85
3.73
6.85
10.15
13.48
16.59
19.26
21.38
23.01
24.35
25.56
26.71
27.71
28.37
28.54
28.13
27.20
25.81
24.04
21.93
19.51
16.87
14.18
11.65
9.43
7.55
5.92
4.33
2.62
0.69
-1.41
-3.54
-5.54
-7.27
-8.63
-9.58
-10.15
-10.43
-10.55
-10.62
-10.74
-10.93
-11.14
-11.35
-11.52
-11.67
-11.79
-11.84
-11.67
-11.13
-10.12
-8.68
-7.02
-5.41
-4.08
-3.05
-2.25
-1.49
-0.66
0.17
0.85
1.19
1.16
0.85
0.47
0.25
0.27
0.54
0.96
1.41
1.80
2.12
2.35
2.47
2.50
2.43
2.29
2.08
1.79
1.35
0.66
-0.36
-1.77
-3.57
-5.65
-7.83
-9.88
-11.53
-12.56
-12.80
-12.24
-11.00
-9.35
-7.64
-6.18
-5.18
-4.68
-4.55
-4.58
-4.56
-4.41
-4.15
-3.93
-3.91
-4.16
-4.63
-5.20
-5.70
-6.03
-6.14
-6.04
-5.72
-5.20
-4.43
-3.45
-2.37
-1.42
-0.87
-0.93
-1.68
-3.00
-4.67
-6.43
-8.12
-9.65
-11.02
-12.19
-13.02
-13.29
-12.78
-11.41
-9.27
-6.63
-3.87
-1.26
1.07
3.18
5.24
7.37
9.57
11.70
13.54
14.95
15.90
16.52
16.97
17.37
17.72
17.91
17.78
17.21
16.17
14.71
12.95
11.02
9.02
7.03
5.11
3.35
1.82
0.59
-0.24
-0.63
-0.61
-0.27
0.22
0.69
1.04
1.30
1.59
2.00
2.56
3.19
3.77
4.18
4.38
4.44
4.45
4.46
4.46
4.39
4.14
3.63
2.84
1.81
0.65
-0.52
-1.59
-2.49
-3.25
-3.94
-4.61
-5.24
-5.76
-6.04
-6.06
-5.88
-5.64
-5.45
-5.30
-5.06
-4.49
-3.46
-1.98
-0.27
1.43
2.90
4.10
5.12
6.08
7.04
7.95
8.71
9.22
9.44
9.39
9.11
8.62
7.97
7.26
6.69
6.49
6.79
7.52
8.31
8.66
8.11
6.49
4.05
1.35
-0.96
-2.37
-2.81
-2.62
-2.41
-2.81
-4.13
-6.15
-8.21
-9.30
-8.41
-4.81
1.71
10.62
20.68
30.14
37.17
40.48
39.69
35.61
29.91
24.63
21.50
21.44
24.32
29.14
34.35
38.31
39.85
38.61
35.09
30.43
25.84
22.09
19.25
16.78
14.03
10.62
6.68
2.53
-1.62
-5.98
-11.08
-17.37
-24.78
-32.54
-39.44
-44.33
-46.61
-46.47
-44.73
-42.40
-40.23
-38.43
-36.72
-34.64
-31.86
-28.43
-24.79
-21.57
-19.31
-18.26
-18.24
-18.69
-18.92
-18.26
-16.28
-12.94
-8.59
-3.91
0.30
3.23
4.28
3.16
-0.03
-4.82
-10.46
-16.17
-21.24
-25.25
-27.96
-29.36
-29.43
-28.22
-25.79
-22.33
-18.20
-13.81
-9.53
-5.56
-1.89
1.59
4.95
8.09
10.78
12.76
13.85
14.10
13.73
13.03
12.30
11.71
11.36
11.28
11.47
11.87
12.36
12.77
12.85
12.36
11.13
9.17
6.63
3.83
1.15
-1.06
-2.58
-3.31
-3.27
-2.57
-1.37
0.17
1.87
3.65
5.47
7.44
9.69
12.34
15.36
18.49
21.35
23.60
25.10
25.96
26.45
26.80
27.08
27.17
26.88
26.06
24.70
22.77
20.19
16.79
12.41
7.15
1.42
-4.06
-8.55
-11.57
-13.04
-13.29
-12.84
-12.14
-11.44
-10.69
-9.71
-8.29
-6.32
-3.84
-1.01
1.94
4.82
7.54
10.06
12.42
14.64
16.67
18.49
20.05
21.42
22.67
23.85
24.85
25.41
25.30
24.54
23.61
23.34
24.51
27.32
31.24
35.17
38.18
40.04
41.37
43.21
46.26
50.43
54.86
58.49
60.83
62.24
63.75
66.41
70.70
76.33
82.48
88.19
92.76
95.95
97.88
98.99
99.93
101.38
103.86
107.55
112.16
116.94
120.56
121.11
116.23
103.29
80.19
46.06
1.82
-49.76
-105.04
-161.08
-217.08
-274.57
-335.77
-400.99
-466.35
-523.54
-562.17
-573.62
-554.24
-506.46
-437.41
-356.42
-273.02
-196.30
-134.93
-96.43
-85.11
-99.35
-130.33
-163.64
-183.86
-179.87
-148.49
-94.50
-27.69
41.12
103.37
153.97
190.84
213.92
224.41
224.49
217.18
205.85
193.61
182.56
173.51
166.15
159.51
152.46
144.19
134.40
123.26
111.38
99.54
88.58
79.10
71.51
65.91
62.24
60.22
59.41
59.11
58.34
55.76
49.82
39.11
22.93
1.93
-21.70
-44.53
-62.83
-73.72
-76.13
-71.01
-60.84
-48.67
-37.14
-27.94
-21.75
-18.42
-17.32
-17.43
-17.56
-16.51
-13.44
-8.20
-1.47
5.46
11.20
14.78
15.95
15.16
13.27
11.19
9.61
8.91
9.25
10.56
12.61
14.93
16.89
17.78
17.06
14.61
10.75
6.13
1.50
-2.54
-5.65
-7.68
-8.54
-8.14
-6.49
-3.85
-0.78
2.03
3.97
4.85
4.93
4.70
4.55
4.49
4.14
3.02
0.89
-2.09
-5.38
-8.38
-10.68
-12.16
-12.96
-13.28
-13.26
-13.01
-12.67
-12.45
-12.57
-13.13
-14.04
-15.02
-15.83
-16.37
-16.71
-17.00
-17.25
-17.28
-16.77
-15.50
-13.50
-11.12
-8.81
-6.89
-5.40
-4.09
-2.63
-0.70
1.80
4.85
8.28
11.89
15.46
18.87
22.22
25.87
30.36
36.15
43.35
51.54
59.82
67.15
72.80
76.60
78.98
80.67
82.30
84.13
85.95
87.29
87.69
86.86
84.81
81.59
77.17
71.28
63.51
53.64
41.99
29.48
17.45
7.05
-1.27
-7.95
-14.09
-20.87
-29.10
-39.01
-50.55
-63.66
-78.38
-94.49
-111.02
-125.88
-136.15
-138.98
-132.68
-117.48
-95.55
-70.31
-45.32
-23.32
-5.74
7.22
16.14
21.90
25.30
27.03
27.69
27.88
28.12
28.73
29.64
30.50
30.79
30.19
28.67
26.56
24.23
21.91
19.52
16.75
13.35
9.31
5.00
0.98
-2.17
-4.16
-5.04
-5.19
-5.09
-5.15
-5.53
-6.14
-6.71
-6.91
-6.47
-5.30
-3.52
-1.52
0.16
0.97
0.64
-0.60
-1.87
-1.82
0.80
6.37
13.82
20.65
23.70
20.44
10.23
-5.25
-22.55
-37.67
-47.41
-50.21
-46.24
-37.01
-24.90
-12.82
-4.01
-1.70
-8.32
-24.58
-48.82
-77.13
-104.36
-125.62
-137.64
-139.35
-131.79
-117.28
-98.61
-78.45
-58.96
-41.76
-27.85
-17.55
-10.50
-5.74
-1.94
2.14
7.21
13.31
19.80
25.64
29.77
31.48
30.64
27.72
23.89
20.74
20.05
23.36
31.45
43.99
59.50
75.77
90.58
102.42
110.83
116.26
119.44
120.81
120.20
117.05
111.02
102.42
92.36
82.42
73.95
67.58
62.95
59.06
54.88
49.89
44.37
39.17
35.15
32.73
31.56
30.80
29.58
27.46
24.58
21.56
19.08
17.54
16.86
16.56
16.04
14.81
12.71
9.92
6.92
4.36
2.90
3.08
5.09
8.79
13.82
19.79
26.51
34.11
42.91
53.24
65.12
78.17
91.72
105.08
117.82
129.93
141.74
153.66
165.94
178.68
191.93
205.90
220.92
237.13
253.97
270.08
283.48
292.45
296.21
295.17
290.49
283.05
272.69
258.15
237.73
210.49
176.98
139.31
100.36
62.72
27.81
-4.40
-35.05
-65.83
-98.27
-133.27
-170.92
-210.49
-250.95
-291.28
-330.98
-370.24
-409.74
-450.39
-493.32
-539.85
-591.33
-648.19
-708.61
-767.55
-816.99
-847.95
-853.62
-831.96
-786.56
-725.12
-656.38
-587.10
-520.68
-457.81
-398.27
-342.50
-291.77
-247.22
-208.57
-173.65
-139.26
-102.72
-63.12
-21.54
19.65
58.39
94.01
127.55
160.96
195.94
232.83
270.04
304.43
332.19
350.25
357.37
354.73
345.68
334.36
324.08
316.12
309.42
301.57
290.40
275.28
257.48
239.38
223.20
209.92
199.02
189.04
178.53
166.80
154.20
141.75
130.54
121.18
113.51
106.76
100.05
92.82
85.16
77.72
71.30
66.32
62.48
58.82
54.22
47.99
40.28
32.01
24.47
18.61
14.71
12.33
10.67
9.06
7.19
5.20
3.44
2.29
2.01
2.68
4.29
6.68
9.51
12.20
14.05
14.41
12.94
9.66
5.01
-0.40
-5.98
-11.32
-16.27
-20.91
-25.49
-30.32
-35.61
-41.33
-47.11
-52.34
-56.35
-58.62
-58.93
-57.39
-54.34
-50.19
-45.42
-40.56
-36.22
-32.98
-31.17
-30.65
-30.73
-30.26
-27.98
-22.85
-14.43
-3.00
10.34
23.85
35.45
43.25
46.12
44.10
38.49
31.40
25.15
21.48
21.11
23.77
28.44
33.88
39.05
43.41
46.90
49.73
52.02
53.59
53.90
52.32
48.61
43.20
37.10
31.44
26.88
23.20
19.47
14.65
8.22
0.68
-6.74
-12.50
-15.25
-14.05
-8.33
1.94
16.10
32.44
48.40
61.26
69.23
72.22
71.76
69.75
67.14
63.03
55.29
42.04
23.29
1.53
-19.23
-35.25
-44.68
-48.07
-47.51
-45.21
-42.39
-39.08
-34.72
-29.03
-22.54
-16.46
-12.04
-9.94
-9.98
-11.28
-12.71
-13.36
-13.00
-11.98
-11.10
-11.23
-12.86
-15.86
-19.40
-22.23
-23.06
-21.10
-16.36
-9.76
-2.81
2.94
6.41
7.38
6.31
3.92
0.61
-3.75
-9.58
-17.10
-25.78
-34.28
-40.78
-43.63
-41.99
-36.09
-27.02
-16.30
-5.36
4.80
13.59
20.69
25.93
29.09
29.94
28.37
24.61
19.32
13.53
8.40
4.80
3.08
2.92
3.53
3.90
3.14
0.72
-3.37
-8.57
-13.86
-18.02
-19.98
-19.16
-15.66
-10.20
-3.85
2.25
7.29
10.83
12.78
13.31
12.66
11.07
8.83
6.26
3.81
2.02
1.35
1.97
3.48
4.98
5.28
3.39
-0.97
-7.20
-14.00
-19.90
-23.88
-25.63
-25.50
-24.19
-22.31
-20.17
-17.80
-15.12
-12.22
-9.22
-6.24
-3.11
0.55
5.25
11.26
18.48
26.40
34.27
41.36
47.18
51.56
54.46
55.97
56.22
55.40
53.83
51.81
49.58
47.17
44.38
40.85
36.28
30.56
23.85
16.57
9.12
1.93
-4.66
-10.36
-15.05
-18.82
-21.96
-24.92
-28.14
-32.22
-37.41
-43.43
-49.49
-54.56
-57.64
-57.90
-54.91
-48.54
-39.72
-29.73
-19.84
-11.15
-4.57
-0.87
-0.30
-2.89
-8.02
-15.65
-25.25
-35.54
-44.61
-50.70
-53.06
-51.80
-48.52
-45.19
-44.87
-49.77
-60.21
-74.74
-91.02
-107.05
-121.25
-133.33
-134.95
-120.95
-92.37
-56.60
-22.09
6.15
24.29
35.18
41.05
43.50
42.45
37.87
31.44
25.33
21.62
21.46
25.26
31.99
40.40
48.41
54.34
57.60
58.54
57.92
56.28
54.17
51.59
48.74
45.40
41.43
37.06
32.77
29.10
26.25
24.28
22.69
20.96
18.52
15.13
11.12
7.14
3.82
1.42
-0.13
-1.32
-2.60
-4.27
-6.47
-9.17
-12.29
-15.77
-19.50
-23.29
-26.86
-29.85
-31.83
-32.39
-31.24
-28.32
-23.89
-18.56
-13.19
-8.75
-5.93
-5.01
-5.73
-7.52
-9.83
-12.41
-15.39
-19.14
-23.90
-29.61
-35.80
-41.76
-46.77
-50.27
-51.89
-51.37
-48.49
-43.11
-35.26
-25.24
-13.73
-1.76
9.45
18.53
24.26
25.83
23.26
17.44
10.14
3.43
-1.00
-2.38
-1.09
1.40
2.90
0.83
-7.05
-21.59
-41.16
-61.15
-74.89
-75.97
-61.15
-32.36
3.62
37.72
62.13
73.03
71.32
61.39
48.83
38.57
33.84
36.11
45.22
59.53
76.16
91.57
102.61
107.38
105.79
99.21
89.67
79.06
68.69
59.30
51.27
44.75
39.67
35.73
32.47
29.52
26.65
23.94
21.68
20.22
19.70
19.97
20.51
20.60
19.52
16.83
12.59
7.38
2.07
-2.50
-5.84
-8.05
-9.75
-11.78
-14.78
-18.95
-23.95
-29.14
-33.93
-38.03
-41.45
-44.46
-47.28
-50.04
-52.67
-55.06
-57.15
-58.99
-60.76
-62.63
-64.66
-66.76
-68.66
-69.99
-70.45
-69.87
-68.25
-65.80
-62.75
-59.26
-55.34
-50.72
-44.99
-37.66
-28.45
-17.39
-5.00
7.75
19.56
29.14
35.55
38.56
38.77
37.51
36.37
36.56
38.33
40.83
42.34
41.05
35.89
27.14
16.44
6.23
-1.14
-4.13
-2.30
3.88
13.45
25.28
38.24
51.12
62.76
72.08
78.38
81.39
81.16
77.90
71.77
62.91
51.55
38.18
23.56
8.58
-5.95
-19.35
-31.03
-40.40
-46.84
-49.78
-48.99
-44.74
-37.89
-29.71
-21.66
-14.92
-10.11
-7.18
-5.56
-4.54
-3.69
-3.06
-3.11
-4.48
-7.69
-13.00
-20.48
-29.94
-40.98
-52.81
-64.14
-73.17
-77.88
-76.56
-68.45
-54.10
-35.44
-15.25
3.55
18.62
28.55
32.80
31.30
24.20
11.85
-4.80
-23.86
-42.50
-57.50
-66.29
-67.76
-62.65
-53.02
-41.31
-29.46
-18.42
-8.27
1.27
10.32
18.65
25.72
31.11
34.72
36.88
38.27
39.63
41.51
44.10
47.27
50.67
53.82
56.29
57.70
57.78
56.39
53.53
49.36
44.26
38.76
33.47
28.88
25.29
22.73
21.02
19.85
18.89
17.94
16.92
15.93
15.26
15.33
16.60
19.44
23.83
29.23
34.58
38.52
39.85
37.91
32.79
25.25
16.30
6.89
-2.34
-11.08
-19.12
-26.25
-32.15
-36.50
-39.11
-39.94
-39.14
-36.94
-33.59
-29.36
-24.61
-19.72
-15.10
-11.08
-7.88
-5.52
-3.93
-2.97
-2.50
-2.39
-2.58
-3.01
-3.63
-4.28
-4.78
-4.92
-4.60
-3.85
-2.91
-2.15
-1.97
-2.65
-4.16
-6.17
-8.08
-9.31
-9.50
-8.65
-7.14
-5.52
-4.30
-3.73
-3.81
-4.40
-5.36
-6.59
-7.99
-9.35
-10.29
-10.37
-9.27
-6.94
-3.63
0.27
4.37
8.36
12.03
15.17
17.60
19.23
20.13
20.58
20.89
21.25
21.59
21.62
21.08
19.97
18.67
17.73
17.56
18.20
19.21
19.96
19.94
19.07
17.64
16.08
14.67
13.38
11.94
10.08
7.73
5.16
2.77
0.92
-0.34
-1.21
-2.06
-3.17
-4.55
-5.98
-7.10
-7.58
-7.29
-6.31
-4.88
-3.26
-1.69
-0.32
0.76
1.54
2.03
2.28
2.37
2.37
2.35
2.32
2.25
2.14
1.96
1.76
1.59
1.47
1.39
1.33
1.29
1.30
1.46
1.85
2.49
3.29
4.11
4.77
5.23
5.52
5.80
6.22
6.85
7.67
8.55
9.36
9.95
10.22
10.11
9.60
8.72
7.60
6.41
5.35
4.58
4.14
3.93
3.82
3.65
3.37
3.08
2.98
3.24
3.85
4.53
4.84
4.34
2.84
0.53
-2.04
-4.14
-5.22
-5.04
-3.74
-1.77
0.34
2.21
3.68
4.89
6.13
7.69
9.68
11.91
14.01
15.54
16.27
16.32
16.08
16.09
16.79
18.39
20.77
23.60
26.45
28.89
30.57
31.28
30.97
29.74
27.68
24.70
20.38
14.11
5.38
-5.77
-18.48
-31.19
-42.11
-49.89
-54.16
-55.72
-56.29
-57.88
-62.27
-70.54
-82.71
-97.44
-111.85
-122.04
-124.12
-115.74
-97.34
-72.34
-46.03
-23.56
-8.00
0.54
4.31
6.31
8.66
11.78
14.84
16.78
17.28
16.95
16.84
17.64
19.21
20.71
21.07
19.75
17.07
14.08
12.00
11.61
12.90
15.09
17.04
17.80
16.96
14.81
12.08
9.60
7.93
7.23
7.23
7.48
7.59
7.38
6.95
6.52
6.30
6.33
6.49
6.55
6.34
5.82
5.16
4.57
4.21
4.12
4.16
4.13
3.86
3.32
2.64
2.02
1.72
1.90
2.61
3.82
5.43
7.33
9.38
11.42
13.32
14.95
16.29
17.42
18.53
19.81
21.41
23.36
25.59
27.93
30.24
32.43
34.43
36.22
37.83
39.30
40.68
42.07
43.49
44.89
46.08
46.72
46.43
44.85
41.79
37.24
31.42
24.64
17.25
9.52
1.66
-6.14
-13.66
-20.60
-26.64
-31.48
-34.94
-37.02
-37.92
-37.98
-37.62
-37.25
-37.17
-37.53
-38.27
-39.18
-39.91
-40.05
-39.21
-37.15
-33.89
-29.66
-24.95
-20.25
-15.92
-12.06
-8.52
-5.01
-1.35
2.42
6.05
9.19
11.55
13.00
13.55
13.27
12.16
10.20
7.39
3.85
-0.14
-4.22
-8.12
-11.77
-15.34
-19.12
-23.28
-27.75
-32.11
-35.76
-38.18
-39.11
-38.62
-37.05
-34.81
-32.21
-29.43
-26.57
-23.73
-21.11
-18.95
-17.47
-16.75
-16.72
-17.19
-17.94
-18.80
-19.67
-20.50
-21.26
-21.99
-22.77
-23.79
-25.27
-27.34
-29.96
-32.81
-35.35
-36.92
-36.97
-35.17
-31.57
-26.52
-20.58
-14.38
-8.57
-3.70
-0.17
1.80
2.21
1.27
-0.63
-2.98
-5.22
-6.88
-7.60
-7.24
-5.91
-3.97
-1.86
0.07
1.73
3.33
5.26
7.87
11.25
15.19
19.23
22.92
25.92
28.09
29.38
29.73
29.11
27.56
25.35
23.00
21.14
20.26
20.52
21.62
22.92
23.69
23.33
21.58
18.53
14.55
10.13
5.78
1.91
-1.18
-3.27
-4.27
-4.18
-3.09
-1.20
1.23
3.97
6.75
9.40
11.73
13.58
14.82
15.36
15.18
14.32
12.88
10.98
8.72
6.26
3.77
1.47
-0.38
-1.55
-1.95
-1.69
-1.05
-0.48
-0.43
-1.26
-3.08
-5.73
-8.85
-11.96
-14.56
-16.27
-16.83
-16.18
-14.46
-12.08
-9.66
-7.92
-7.46
-8.59
-11.18
-14.65
-18.14
-20.74
-21.68
-20.57
-17.48
-12.90
-7.59
-2.40
2.02
5.34
7.57
8.94
9.74
10.18
10.39
10.39
10.29
10.22
10.36
10.80
11.51
12.29
12.86
12.91
12.22
10.65
8.23
5.15
1.74
-1.59
-4.43
-6.52
-7.74
-8.20
-8.16
-7.94
-7.85
-8.06
-8.62
-9.41
-10.31
-11.18
-11.94
-12.48
-12.59
-11.97
-10.35
-7.64
-4.07
-0.13
3.64
6.92
9.72
12.34
15.09
18.06
21.00
23.44
24.96
25.32
24.57
22.94
20.68
18.03
15.14
12.11
9.05
6.05
3.20
0.64
-1.48
-3.02
-3.87
-4.01
-3.62
-2.96
-2.37
-2.14
-2.44
-3.26
-4.48
-5.91
-7.36
-8.66
-9.71
-10.48
-10.93
-11.06
-10.89
-10.42
-9.62
-8.42
-6.73
-4.46
-1.64
1.51
4.56
6.95
8.17
7.95
6.43
4.24
2.26
1.28
1.67
3.19
5.06
6.35
6.34
4.88
2.36
-0.52
-3.07
-4.92
-5.95
-6.24
-5.85
-4.84
-3.28
-1.45
0.18
1.11
1.08
0.23
-0.87
-1.50
-1.07
0.57
3.07
5.73
7.83
8.94
9.01
8.40
7.60
7.11
7.19
7.88
8.98
10.26
11.45
12.38
12.92
13.02
12.65
11.84
10.65
9.12
7.30
5.21
2.89
0.42
-2.06
-4.30
-6.04
-7.04
-7.21
-6.58
-5.34
-3.80
-2.31
-1.19
-0.74
-1.10
-2.29
-4.15
-6.38
-8.60
-10.42
-11.51
-11.67
-10.79
-8.90
-6.17
-2.87
0.67
4.09
7.08
9.47
11.21
12.36
13.05
13.39
13.42
13.19
12.72
12.06
11.33
10.68
10.16
9.79
9.45
8.98
8.24
7.19
5.86
4.41
2.95
1.62
0.50
-0.38
-1.02
-1.46
-1.79
-2.13
-2.56
-3.11
-3.74
-4.32
-4.76
-5.01
-5.13
-5.26
-5.49
-5.84
-6.25
-6.59
-6.79
-6.79
-6.59
-6.19
-5.56
-4.67
-3.55
-2.27
-0.99
0.15
0.99
1.48
1.61
1.46
1.20
1.05
1.17
1.62
2.30
2.99
3.47
3.66
3.65
3.66
3.89
4.40
5.12
5.87
6.45
6.75
6.74
6.39
5.73
4.84
3.85
3.01
2.59
2.75
3.53
4.73
6.05
7.17
7.86
8.10
8.00
7.74
7.43
7.04
6.39
5.23
3.47
1.20
-1.23
-3.39
-4.90
-5.58
-5.48
-4.85
-3.98
-3.14
-2.50
-2.17
-2.17
-2.46
-2.99
-3.67
-4.44
-5.23
-6.01
-6.73
-7.32
-7.69
-7.83
-7.74
-7.51
-7.21
-6.84
-6.31
-5.51
-4.37
-2.95
-1.51
-0.35
0.25
0.23
-0.29
-0.99
-1.59
-1.88
-1.87
-1.74
-1.67
-1.76
-2.01
-2.27
-2.43
-2.39
-2.13
-1.62
-0.83
0.27
1.68
3.22
4.61
5.52
5.72
5.21
4.23
3.13
2.20
1.55
1.11
0.76
0.41
0.12
0.05
0.32
0.90
1.67
2.40
2.97
3.33
3.56
3.79
4.09
4.43
4.72
4.85
4.74
4.34
3.67
2.75
1.63
0.39
-0.89
-2.11
-3.19
-4.09
-4.79
-5.35
-5.83
-6.27
-6.69
-7.00
-7.08
-6.82
-6.09
-4.86
-3.12
-0.96
1.47
3.95
6.26
8.18
9.58
10.45
10.95
11.27
11.66
12.26
13.12
14.16
15.26
16.30
17.17
17.81
18.17
18.22
17.94
17.39
16.68
15.98
15.56
15.64
16.35
17.68
19.42
21.20
22.58
23.15
22.68
21.16
18.88
16.24
13.63
11.20
8.85
6.23
2.99
-1.10
-6.01
-11.53
-17.36
-23.14
-28.54
-33.22
-36.83
-39.13
-40.06
-39.83
-38.88
-37.67
-36.53
-35.56
-34.58
-33.34
-31.62
-29.36
-26.62
-23.53
-20.19
-16.71
-13.19
-9.79
-6.72
-4.22
-2.46
-1.45
-1.04
-0.92
-0.80
-0.44
0.22
1.05
1.83
2.28
2.24
1.66
0.66
-0.52
-1.59
-2.26
-2.42
-2.16
-1.71
-1.44
-1.63
-2.39
-3.59
-4.93
-6.06
-6.72
-6.78
-6.28
-5.38
-4.25
-3.05
-1.90
-0.89
-0.11
0.41
0.68
0.79
0.82
0.87
0.98
1.14
1.30
1.45
1.60
1.84
2.27
2.92
3.77
4.69
5.52
6.09
6.25
5.93
5.06
3.62
1.68
-0.59
-2.98
-5.26
-7.29
-9.05
-10.64
-12.15
-13.62
-14.96
-16.02
-16.64
-16.72
-16.26
-15.37
-14.20
-12.93
-11.73
-10.78
-10.19
-9.99
-10.10
-10.30
-10.28
-9.74
-8.52
-6.68
-4.44
-2.20
-0.28
1.09
1.97
2.61
3.36
4.57
6.43
8.92
11.83
14.82
17.51
19.56
20.66
20.53
19.02
16.10
11.96
7.04
2.02
-2.29
-5.04
-5.59
-3.59
0.85
7.17
14.38
21.25
26.45
28.87
27.69
22.50
13.38
0.89
-13.77
-28.93
-42.65
-53.26
-59.76
-62.19
-61.49
-59.05
-56.15
-53.46
-51.02
-48.54
-45.91
-43.42
-41.62
-40.90
-40.98
-40.77
-38.64
-33.10
-23.36
-9.69
6.77
24.50
42.09
58.45
72.73
84.14
91.99
95.98
96.53
94.96
93.07
92.38
93.27
94.57
93.73
87.95
75.39
56.24
32.96
9.55
-9.71
-21.79
-26.00
-24.17
-19.88
-16.93
-17.85
-22.91
-30.22
-36.67
-39.42
-37.04
-30.01
-20.28
-10.25
-1.79
4.35
8.29
10.39
10.61
8.30
2.52
-7.27
-20.72
-36.50
-52.61
-66.90
-77.48
-82.90
-82.19
-75.02
-61.97
-44.67
-25.70
-7.95
6.23
15.75
20.89
22.79
22.73
21.42
18.98
15.31
10.58
5.53
1.21
-1.47
-2.28
-1.75
-0.84
-0.42
-0.71
-1.22
-1.13
0.22
2.81
5.94
8.49
9.54
8.77
6.72
4.60
3.90
5.79
10.63
17.68
25.22
31.13
33.69
32.24
27.53
21.30
15.50
11.41
9.27
8.46
8.18
8.05
8.29
9.36
11.42
13.91
15.60
15.10
11.47
4.65
-4.45
-14.32
-23.32
-30.17
-34.20
-35.42
-34.31
-31.73
-28.54
-25.45
-22.67
-19.90
-16.32
-11.00
-3.33
6.55
17.62
28.21
36.52
41.26
42.11
39.66
35.24
30.45
26.77
25.23
26.13
28.71
31.04
30.33
23.80
9.93
-10.41
-33.65
-54.32
-66.94
-68.13
-57.87
-39.47
-18.00
1.76
16.92
26.98
33.19
37.21
40.07
41.89
42.19
40.67
37.66
34.07
30.87
28.54
26.75
24.65
21.28
16.18
9.64
2.64
-3.56
-7.85
-9.70
-9.26
-7.28
-4.79
-2.80
-1.92
-2.30
-3.67
-5.42
-6.95
-7.75
-7.45
-5.64
-1.96
3.61
10.17
15.54
16.66
10.67
-3.55
-24.33
-47.44
-67.44
-79.79
-82.39
-76.08
-63.73
-48.80
-34.01
-20.87
-9.90
-1.16
5.40
9.94
12.84
14.78
16.47
18.51
21.22
24.56
28.38
32.62
37.42
43.15
50.17
58.61
67.95
76.95
83.64
85.95
82.53
73.55
61.02
48.28
39.00
35.87
39.73
49.47
62.57
76.09
87.59
95.72
100.12
101.18
99.43
95.17
88.34
78.84
67.03
54.04
41.62
31.44
24.28
19.39
14.84
8.31
-1.68
-14.96
-29.76
-43.50
-53.88
-59.75
-61.40
-60.23
-58.24
-57.45
-59.37
-64.77
-73.52
-84.66
-96.50
-106.61
-112.37
-111.69
-104.07
-91.04
-75.90
-62.48
-53.62
-50.23
-50.91
-53.07
-54.68
-55.47
-56.80
-60.45
-67.21
-76.25
-85.93
-94.18
-99.81
-103.21
-106.17
-110.73
-118.19
-128.35
-139.43
-149.23
-154.66
-152.79
-142.34
-124.38
-101.90
-78.57
-57.50
-40.32
-27.83
-18.82
-10.72
-0.85
12.69
30.63
52.33
75.26
99.82
119.92
127.59
119.55
100.12
77.74
59.62
48.91
44.64
43.69
42.45
39.65
36.30
33.97
33.14
33.08
32.56
30.65
26.95
21.26
14.40
7.87
3.00
0.29
-0.77
-1.04
-1.47
-2.87
-5.79
-10.12
-15.50
-21.96
-29.91
-39.11
-47.50
-51.10
-46.47
-31.09
-6.13
23.70
51.76
72.14
82.06
81.65
75.14
66.86
59.48
53.52
48.46
43.88
40.05
37.66
37.06
37.93
39.13
39.60
38.59
36.36
33.77
31.82
31.10
31.66
33.01
34.30
34.86
34.39
33.23
32.21
32.40
34.51
38.34
42.43
44.21
41.04
31.50
16.30
-1.79
-18.99
-32.12
-39.86
-42.74
-42.58
-41.26
-39.87
-38.51
-36.86
-34.78
-32.60
-30.87
-29.83
-29.21
-28.34
-26.53
-23.36
-19.02
-14.18
-9.76
-6.53
-4.82
-4.39
-4.43
-3.92
-2.06
1.37
5.84
10.28
13.44
14.44
13.06
9.83
5.79
2.08
-0.47
-1.52
-1.26
-0.24
0.96
1.79
1.89
1.18
-0.20
-1.90
-3.44
-4.38
-4.45
-3.69
-2.47
-1.32
-0.68
-0.70
-1.19
-1.78
-2.15
-2.20
-1.99
-1.66
-1.29
-0.81
-0.13
0.78
1.81
2.73
3.31
3.42
3.09
2.44
1.66
0.92
0.31
-0.14
-0.47
-0.72
-0.93
-1.09
-1.12
-0.96
-0.56
0.09
0.97
2.00
3.12
4.27
5.48
6.82
8.41
10.25
12.23
14.13
15.69
16.75
17.31
17.50
17.48
17.35
17.09
16.69
16.20
15.72
15.33
14.94
14.14
12.36
9.09
4.21
-1.86
-8.28
-14.03
-18.36
-20.93
-21.87
-21.60
-20.61
-19.28
-17.85
-16.41
-14.99
-13.53
-11.93
-10.01
-7.66
-4.88
-1.84
1.10
3.49
4.89
5.01
3.82
1.52
-1.44
-4.49
-7.06
-8.68
-9.13
-8.49
-7.06
-5.32
-3.74
-2.68
-2.26
-2.43
-3.00
-3.72
-4.35
-4.76
-4.94
-5.01
-5.12
-5.47
-6.17
-7.25
-8.63
-10.12
-11.52
-12.58
-13.11
-13.03
-12.40
-11.45
-10.53
-10.02
-10.18
-11.09
-12.62
-14.47
-16.39
-18.21
-19.91
-21.53
-23.13
-24.60
-25.69
-26.03
-25.31
-23.38
-20.32
-16.45
-12.22
-8.03
-4.20
-0.87
1.93
4.26
6.19
7.78
9.10
10.22
11.18
12.00
12.68
13.17
13.46
13.54
13.43
13.22
12.94
12.64
12.29
11.80
11.02
9.76
7.82
5.05
1.44
-2.85
-7.52
-12.17
-16.41
-19.96
-22.69
-24.53
-25.49
-25.53
-24.61
-22.70
-19.87
-16.28
-12.19
-7.86
-3.49
0.80
5.03
9.22
13.40
17.53
21.44
24.93
27.80
29.89
31.14
31.53
31.08
29.84
27.91
25.50
22.97
20.77
19.28
18.64
18.69
18.95
18.88
18.09
16.44
14.04
11.08
7.66
3.73
-0.76
-5.71
-10.73
-15.12
-18.15
-19.23
-18.21
-15.37
-11.30
-6.68
-2.07
2.20
5.95
9.12
11.55
13.02
13.28
12.24
10.06
7.24
4.41
2.17
0.86
0.49
0.77
1.34
1.89
2.29
2.54
2.74
2.92
2.97
2.73
2.03
0.82
-0.74
-2.35
-3.61
-4.31
-4.42
-4.22
-4.09
-4.37
-5.17
-6.34
-7.57
-8.50
-8.96
-8.93
-8.54
-7.88
-6.82
-5.01
-1.89
2.99
9.75
17.98
26.74
34.75
40.62
43.20
41.66
35.69
25.62
12.64
-1.20
-13.21
-20.73
-21.95
-16.54
-5.74
8.18
22.75
36.05
47.00
55.10
59.96
61.12
58.17
51.16
41.02
29.43
18.44
9.70
3.97
0.98
-0.25
-0.93
-1.92
-3.53
-5.50
-7.38
-8.79
-9.63
-10.13
-10.57
-11.04
-11.27
-10.74
-8.96
-5.83
-1.72
2.61
6.35
8.98
10.43
11.00
11.11
11.02
10.72
10.00
8.69
6.77
4.48
2.24
0.48
-0.55
-0.84
-0.67
-0.43
-0.56
-1.43
-3.32
-6.34
-10.47
-15.49
-21.01
-26.50
-31.39
-35.26
-37.83
-39.02
-38.89
-37.55
-35.15
-31.86
-27.91
-23.52
-18.92
-14.24
-9.52
-4.82
-0.26
3.92
7.41
9.96
11.50
12.11
11.96
11.12
9.49
6.89
3.21
-1.41
-6.54
-11.51
-15.63
-18.43
-19.74
-19.65
-18.38
-16.20
-13.34
-10.06
-6.77
-3.99
-2.30
-2.15
-3.73
-6.89
-11.20
-16.04
-20.79
-24.80
-27.56
-28.69
-28.07
-25.87
-22.55
-18.78
-15.21
-12.31
-10.30
-9.10
-8.46
-8.03
-7.46
-6.45
-4.86
-2.74
-0.36
1.80
3.20
3.38
2.10
-0.60
-4.40
-8.83
-13.27
-17.15
-20.02
-21.66
-22.16
-21.84
-21.23
-20.85
-21.06
-22.01
-23.52
-25.18
-26.39
-26.52
-25.10
-22.02
-17.60
-12.46
-7.36
-2.80
1.04
4.35
7.49
10.74
14.15
17.57
20.76
23.55
25.83
27.58
28.79
29.45
29.63
29.48
29.21
29.02
28.98
28.95
28.66
27.77
26.03
23.30
19.62
15.14
10.17
5.08
0.35
-3.58
-6.39
-7.96
-8.36
-7.88
-6.82
-5.49
-4.12
-2.86
-1.79
-0.92
-0.19
0.57
1.57
2.95
4.76
6.80
8.74
10.19
10.82
10.55
9.51
8.09
6.75
5.88
5.74
6.33
7.49
8.94
10.40
11.63
12.44
12.67
12.25
11.18
9.57
7.72
6.01
4.83
4.43
4.82
5.78
6.94
7.97
8.68
9.07
9.26
9.38
9.45
9.41
9.13
8.52
7.58
6.39
5.06
3.64
2.16
0.63
-0.88
-2.23
-3.24
-3.79
-3.87
-3.59
-3.14
-2.69
-2.35
-2.14
-2.04
-1.97
-1.91
-1.83
-1.76
-1.70
-1.65
-1.60
-1.54
-1.46
-1.37
-1.28
-1.20
-1.14
-1.10
-1.06
-1.02
-0.97
-0.89
-0.82
-0.75
-0.69
-0.66
-0.65
-0.64
-0.63
-0.61
-0.57
-0.52
-0.48
-0.44
-0.43
-0.42
-0.42
-0.41
-0.41
-0.39
-0.37
-0.36
-0.35
-0.35
-0.35
-0.35
-0.36
-0.36
-0.36
-0.36
-0.36
-0.36
-0.36
-0.36
-0.36
-0.35
-0.35
-0.35
-0.35
-0.35
-0.35
-0.35
-0.34
-0.34
-0.34
-0.34
-0.34
-0.34
-0.34
-0.34
-0.33
-0.33
-0.33
-0.33
-0.33
-0.33
-0.33
-0.33
-0.32
-0.32
-0.32
-0.32
-0.32
-0.32
-0.32
-0.32
-0.32
-0.31
-0.31
-0.31
-0.31
-0.31
-0.31
-0.31
-0.31
-0.31
-0.30
-0.30
-0.30
-0.30
-0.30
-0.30
-0.30
-0.30
-0.29
-0.29
-0.29
-0.29
-0.29
-0.29
-0.29
-0.29
-0.29
-0.29
-0.28
-0.28
-0.28
-0.28
-0.28
-0.28
-0.28
-0.28
-0.28
-0.28
-0.27
-0.27
-0.27
-0.27
-0.27
-0.27
-0.27
-0.27
-0.27
-0.27
-0.26
-0.26
-0.26
-0.26
-0.26
-0.26
-0.26
-0.26
-0.26
-0.26
-0.25
-0.25
-0.25
-0.25
-0.25
-0.25
-0.25
-0.25
-0.25
-0.25
-0.25
-0.25
-0.24
-0.24
-0.24
-0.24
-0.24
-0.24
-0.24
-0.24
-0.24
-0.24
-0.24
-0.23
-0.23
-0.23
-0.23
-0.23
-0.23
-0.23
-0.23
-0.23
-0.23
-0.23
-0.23
-0.22
-0.22
-0.22
-0.22
-0.22
-0.22
-0.22
-0.22
-0.22
-0.21
-0.21
-0.21
-0.20
-0.20
-0.20
-0.20
-0.20
-0.20
-0.21
-0.21
-0.22
-0.23
-0.24
-0.25
-0.27
-0.29
-0.31
-0.32
-0.34
-0.36
-0.37
-0.39
-0.41
-0.43
-0.45
-0.48
-0.51
-0.53
-0.54
-0.55
-0.57
-0.59
-0.63
-0.68
-0.74
-0.80
-0.86
-0.91
-0.97
-1.04
-1.13
-1.24
-1.37
-1.52
-1.66
-1.81
-1.94
-2.09
-2.25
-2.44
-2.66
-2.91
-3.17
-3.43
-3.70
-4.01
-4.37
-4.76
-5.18
-5.63
-6.14
-6.75
-7.49
-8.33
-9.16
-9.82
-10.22
-10.32
-10.17
-9.79
-9.17
-8.21
-6.76
-4.79
-2.34
0.40
3.23
6.00
8.61
11.02
13.18
15.07
16.70
18.17
19.63
21.16
22.69
23.97
24.66
24.43
23.22
21.24
18.96
16.91
15.50
14.85
14.75
14.85
14.73
14.16
13.11
11.70
10.10
8.37
6.50
4.46
2.27
-0.05
-2.55
-5.54
-9.49
-14.86
-21.74
-29.63
-37.50
-44.12
-48.52
-50.29
-49.58
-46.93
-42.85
-37.68
-31.70
-25.40
-19.63
-15.58
-14.29
-16.20
-20.84
-26.92
-32.87
-37.39
-39.91
-40.57
-39.95
-38.63
-36.83
-34.37
-30.93
-26.29
-20.62
-14.45
-8.54
-3.57
0.06
2.30
3.41
3.76
3.73
3.57
3.48
3.69
4.37
5.68
7.56
9.69
11.52
12.52
12.27
10.73
8.18
5.17
2.35
0.32
-0.51
0.02
1.81
4.47
7.47
10.28
12.49
13.89
14.52
14.51
14.05
13.27
12.25
11.04
9.71
8.40
7.31
6.61
6.42
6.71
7.38
8.27
9.24
10.24
11.26
12.35
13.49
14.61
15.62
16.48
17.21
17.87
18.53
19.14
19.59
19.74
19.47
18.74
17.59
16.05
14.17
12.04
9.83
7.76
6.08
4.94
4.31
4.02
3.83
3.55
3.15
2.72
2.42
2.37
2.64
3.14
3.74
4.22
4.37
4.05
3.18
1.86
0.27
-1.37
-2.86
-4.08
-5.00
-5.63
-6.01
-6.15
-6.05
-5.72
-5.19
-4.54
-3.83
-3.13
-2.47
-1.85
-1.25
-0.65
-0.07
0.43
0.79
0.94
0.85
0.56
0.18
-0.13
-0.15
0.27
1.23
2.71
4.53
6.46
8.29
9.86
11.13
12.12
12.89
13.45
13.75
13.68
13.13
12.09
10.66
9.03
7.46
6.16
5.31
4.96
5.10
5.66
6.51
7.49
8.38
9.00
9.20
8.94
8.33
7.53
6.74
6.07
5.52
5.01
4.42
3.67
2.73
1.65
0.52
-0.51
-1.24
-1.43
-0.88
0.42
2.31
4.41
6.26
7.53
8.08
7.98
7.48
6.81
6.08
5.28
4.36
3.28
2.08
0.87
-0.25
-1.23
-2.05
-2.78
-3.46
-4.14
-4.86
-5.66
-6.59
-7.70
-8.95
-10.27
-11.47
-12.43
-13.05
-13.40
-13.65
-14.01
-14.66
-15.65
-16.87
-18.07
-18.90
-19.06
-18.37
-16.73
-14.24
-11.06
-7.43
-3.62
0.12
3.60
6.66
9.25
11.39
13.17
14.69
16.00
17.07
17.83
18.20
18.19
17.82
17.17
16.26
15.09
13.58
11.68
9.40
6.87
4.30
1.93
-0.08
-1.65
-2.81
-3.60
-4.05
-4.13
-3.83
-3.23
-2.49
-1.90
-1.71
-2.08
-2.98
-4.20
-5.49
-6.59
-7.33
-7.63
-7.50
-7.00
-6.18
-5.12
-3.90
-2.65
-1.51
-0.64
-0.14
-0.06
-0.30
-0.71
-1.10
-1.31
-1.24
-0.90
-0.34
0.34
1.00
1.55
1.89
1.96
1.78
1.44
1.06
0.75
0.59
0.59
0.67
0.69
0.50
-0.07
-1.07
-2.38
-3.75
-4.80
-5.23
-4.92
-3.98
-2.72
-1.49
-0.53
0.11
0.52
0.85
1.20
1.61
2.02
2.34
2.48
2.38
2.03
1.44
0.64
-0.29
-1.21
-2.02
-2.60
-2.87
-2.76
-2.27
-1.36
-0.09
1.48
3.23
5.07
6.99
9.00
11.16
13.41
15.61
17.55
19.00
19.85
20.14
20.01
19.68
19.30
18.96
18.68
18.49
18.43
18.55
18.80
19.02
18.96
18.37
17.14
15.29
13.05
10.70
8.49
6.58
5.00
3.71
2.64
1.67
0.68
-0.43
-1.72
-3.14
-4.56
-5.80
-6.72
-7.25
-7.45
-7.48
-7.57
-7.97
-8.96
-10.75
-13.43
-16.87
-20.69
-24.29
-26.99
-28.25
-27.76
-25.65
-22.42
-18.88
-15.88
-14.06
-13.63
-14.31
-15.47
-16.38
-16.52
-15.69
-14.05
-11.95
-9.77
-7.77
-6.12
-4.87
-4.04
-3.63
-3.57
-3.76
-4.06
-4.28
-4.28
-3.91
-3.09
-1.82
-0.17
1.69
3.51
5.04
6.05
6.47
6.32
5.76
4.96
4.05
3.03
1.83
0.38
-1.30
-3.04
-4.62
-5.83
-6.59
-6.97
-7.14
-7.34
-7.73
-8.38
-9.29
-10.34
-11.37
-12.12
-12.37
-11.96
-10.87
-9.23
-7.24
-5.12
-3.01
-1.00
0.83
2.41
3.59
4.30
4.54
4.40
4.04
3.62
3.26
3.04
2.97
3.10
3.43
3.94
4.58
5.28
5.97
6.60
7.12
7.51
7.74
7.76
7.50
6.90
5.91
4.54
2.84
0.90
-1.14
-3.14
-4.98
-6.60
-7.96
-9.12
-10.15
-11.12
-12.12
-13.17
-14.23
-15.22
-16.03
-16.57
-16.74
-16.45
-15.63
-14.22
-12.25
-9.90
-7.47
-5.28
-3.61
-2.65
-2.40
-2.78
-3.64
-4.73
-5.76
-6.41
-6.43
-5.75
-4.50
-3.02
-1.68
-0.67
0.10
0.95
2.34
4.64
7.95
12.13
16.78
21.47
25.84
29.68
33.08
36.30
39.77
43.86
48.70
54.05
59.21
63.16
64.82
63.46
58.88
51.52
42.23
31.99
21.59
11.53
2.06
-6.67
-14.43
-20.90
-25.78
-28.89
-30.31
-30.33
-29.39
-27.95
-26.35
-24.87
-23.72
-23.09
-23.15
-23.98
-25.42
-27.11
-28.49
-29.02
-28.33
-26.37
-23.39
-19.82
-16.09
-12.50
-9.15
-5.97
-2.88
0.19
3.15
5.80
7.88
9.20
9.74
9.73
9.55
9.63
10.18
11.14
12.12
12.66
12.40
11.36
9.95
8.85
8.67
9.66
11.60
13.88
15.79
16.84
16.93
16.37
15.70
15.53
16.37
18.46
21.43
24.16
24.76
21.03
11.35
-4.47
-24.73
-46.12
-64.73
-77.25
-81.95
-78.94
-69.89
-57.28
-43.62
-30.97
-20.66
-13.24
-8.63
-6.26
-5.40
-5.32
-5.46
-5.44
-5.03
-4.14
-2.83
-1.30
0.20
1.44
2.37
3.15
3.98
4.98
6.07
6.92
7.17
6.65
5.51
4.21
3.36
3.47
4.72
6.94
9.58
11.87
13.09
12.81
11.09
8.49
5.84
3.97
3.28
3.69
4.81
6.26
7.91
9.97
12.74
16.25
20.12
23.62
26.06
27.12
27.02
26.36
25.82
25.84
26.45
27.38
28.21
28.63
28.54
28.09
27.52
27.02
26.56
25.79
24.04
20.46
14.25
4.91
-7.57
-22.59
-39.11
-55.76
-70.94
-82.93
-90.00
-90.76
-84.67
-72.50
-56.39
-39.47
-24.92
-15.06
-10.70
-11.17
-14.78
-19.59
-23.93
-26.70
-27.34
-25.72
-22.13
-17.17
-11.69
-6.61
-2.67
-0.24
0.79
0.94
0.95
1.61
3.45
6.58
10.75
15.49
20.28
24.83
28.98
32.58
35.20
36.19
34.83
30.79
24.38
16.50
8.34
0.90
-5.21
-9.62
-11.96
-11.73
-8.44
-2.12
6.50
15.97
24.64
31.29
35.52
37.76
38.86
39.52
40.05
40.32
40.07
39.18
37.86
36.58
35.86
36.02
37.04
38.47
39.52
39.31
37.05
32.33
25.30
16.76
8.02
0.54
-4.55
-6.98
-7.59
-8.01
-9.93
-14.27
-20.68
-27.66
-33.31
-36.25
-36.30
-34.51
-32.58
-31.91
-32.89
-34.72
-35.90
-35.02
-31.57
-26.16
-20.24
-15.40
-12.68
-12.26
-13.52
-15.48
-17.29
-18.44
-18.71
-18.04
-16.30
-13.33
-8.97
-3.10
4.22
12.72
21.70
30.00
36.01
38.10
35.26
27.70
17.06
5.91
-3.04
-7.81
-7.63
-2.88
5.40
16.06
28.10
40.63
52.68
63.10
70.75
74.93
75.72
73.99
71.04
68.03
65.55
63.41
60.85
57.05
51.47
44.08
35.32
25.80
16.00
5.96
-4.83
-17.25
-32.11
-49.50
-68.36
-86.48
-101.21
-110.45
-113.53
-111.43
-106.20
-99.97
-94.15
-89.15
-84.75
-80.68
-76.93
-73.61
-70.68
-67.70
-64.06
-59.29
-53.42
-46.87
-40.27
-34.13
-28.65
-23.84
-19.64
-16.05
-13.03
-10.44
-7.93
-4.99
-1.09
4.19
10.97
19.07
27.94
36.64
43.90
48.27
48.35
43.28
33.22
19.59
4.92
-7.82
-16.21
-19.12
-16.93
-10.91
-2.38
8.04
20.49
35.30
52.15
69.66
85.52
97.28
103.26
102.99
97.32
87.87
76.55
64.99
54.38
45.37
38.15
32.57
28.25
24.65
21.10
16.76
10.78
2.45
-8.40
-21.18
-34.52
-46.66
-56.00
-61.65
-63.71
-63.14
-61.35
-59.75
-59.38
-60.67
-63.50
-67.27
-71.12
-74.21
-75.81
-75.37
-72.47
-66.84
-58.41
-47.51
-35.00
-22.29
-10.95
-2.24
3.34
6.19
7.33
7.82
8.37
9.11
9.87
10.51
11.21
12.52
15.10
19.43
25.47
32.60
39.69
45.33
48.14
47.11
41.82
32.57
20.37
6.69
-6.82
-18.67
-27.70
-33.16
-34.69
-32.31
-26.41
-17.83
-7.72
2.57
11.90
19.53
25.20
29.03
31.20
31.77
30.63
27.77
23.44
18.31
13.28
9.16
6.37
4.84
4.16
3.87
3.66
3.53
3.67
4.31
5.50
7.09
8.75
10.07
10.68
10.34
8.97
6.65
3.51
-0.27
-4.50
-8.95
-13.27
-16.97
-19.47
-20.27
-19.18
-16.38
-12.46
-8.14
-4.09
-0.72
1.88
3.84
5.37
6.62
7.68
8.58
9.32
9.89
10.28
10.45
10.38
10.05
9.48
8.72
7.84
6.93
6.03
5.17
4.34
3.51
2.62
1.62
0.48
-0.76
-2.04
-3.30
-4.49
-5.64
-6.82
-8.10
-9.52
-11.10
-12.78
-14.52
-16.25
-17.86
-19.21
-20.05
-20.16
-19.39
-17.78
-15.53
-12.98
-10.50
-8.37
-6.73
-5.62
-4.95
-4.59
-4.42
-4.35
-4.32
-4.35
-4.44
-4.59
-4.78
-4.96
-5.08
-5.13
-5.11
-4.97
-4.68
-4.18
-3.46
-2.63
-1.86
-1.30
-1.04
-1.03
-1.15
-1.26
-1.31
-1.37
-1.52
-1.85
-2.34
-2.88
-3.28
-3.37
-2.99
-2.11
-0.76
0.93
2.81
4.74
6.59
8.27
9.69
10.80
11.55
11.89
11.86
11.51
10.92
10.20
9.47
8.82
8.38
8.22
8.33
8.63
8.95
9.10
8.90
8.27
7.26
6.00
4.66
3.36
2.18
1.11
0.06
-1.02
-2.17
-3.41
-4.73
-6.09
-7.43
-8.64
-9.53
-9.88
-9.53
-8.45
-6.76
-4.73
-2.63
-0.70
0.96
2.30
3.31
3.99
4.35
4.43
4.37
4.32
4.42
4.76
5.32
5.98
6.63
7.16
7.54
7.76
7.86
7.83
7.66
7.30
6.76
6.03
5.19
4.29
3.36
2.40
1.37
0.25
-0.90
-1.98
-2.85
-3.39
-3.52
-3.18
-2.37
-1.10
0.53
2.36
4.17
5.72
6.78
7.26
7.19
6.72
6.05
5.42
4.97
4.76
4.76
4.89
5.07
5.22
5.31
5.32
5.23
5.05
4.80
4.50
4.19
3.91
3.62
3.21
2.60
1.68
0.45
-1.02
-2.56
-4.01
-5.18
-5.99
-6.43
-6.55
-6.39
-5.96
-5.19
-3.97
-2.27
-0.15
2.15
4.32
6.07
7.25
7.85
8.02
7.98
7.92
7.93
8.01
8.10
8.15
8.13
8.12
8.18
8.44
8.93
9.68
10.63
11.73
12.86
13.91
14.77
15.31
15.48
15.29
14.84
14.26
13.70
13.19
12.70
12.10
11.29
10.25
9.11
8.11
7.50
7.45
7.98
8.96
10.17
11.36
12.35
13.05
13.45
13.60
13.58
13.45
13.23
12.87
12.31
11.50
10.45
9.24
8.02
7.00
6.26
5.82
5.52
5.15
4.47
3.35
1.79
-0.05
-1.94
-3.64
-4.99
-5.99
-6.74
-7.46
-8.38
-9.75
-11.77
-14.49
-17.83
-21.55
-25.25
-28.49
-30.91
-32.34
-32.83
-32.60
-31.90
-30.96
-29.92
-28.86
-27.87
-27.05
-26.46
-26.12
-25.95
-25.82
-25.63
-25.36
-25.07
-24.82
-24.61
-24.37
-24.01
-23.47
-22.80
-22.10
-21.43
-20.74
-19.89
-18.72
-17.21
-15.43
-13.62
-12.00
-10.74
-9.95
-9.69
-9.97
-10.78
-12.03
-13.46
-14.66
-15.17
-14.63
-12.89
-10.10
-6.68
-3.12
0.14
2.93
5.37
7.92
11.11
15.32
20.46
25.84
30.25
32.43
31.43
27.06
19.98
11.44
2.89
-4.46
-9.83
-12.94
-13.90
-13.08
-11.00
-8.26
-5.52
-3.33
-2.05
-1.78
-2.38
-3.50
-4.70
-5.51
-5.63
-4.96
-3.71
-2.36
-1.40
-1.14
-1.50
-1.96
-1.80
-0.38
2.61
7.02
12.35
17.86
22.71
26.11
27.43
26.52
23.91
20.92
19.33
20.81
26.14
34.76
44.89
54.20
60.60
63.00
61.40
56.61
49.64
41.32
32.16
22.56
13.00
4.19
-3.07
-8.17
-10.84
-11.29
-10.08
-7.91
-5.39
-2.83
-0.21
2.69
6.09
9.96
13.96
17.48
19.85
20.65
19.88
17.99
15.67
13.55
11.85
10.26
7.99
4.14
-1.78
-9.52
-17.88
-25.04
-29.08
-28.74
-23.89
-15.66
-6.16
2.11
6.91
6.72
1.07
-9.45
-23.36
-38.60
-52.90
-64.29
-71.48
-74.12
-72.76
-68.61
-63.11
-57.51
-52.55
-48.50
-45.22
-42.45
-39.90
-37.30
-34.45
-31.18
-27.39
-23.11
-18.58
-14.19
-10.32
-7.21
-4.87
-3.11
-1.61
-0.04
1.82
4.15
7.10
10.80
15.33
20.69
26.77
33.41
40.39
47.34
53.65
58.41
60.52
59.04
53.68
45.19
35.46
27.19
23.28
26.12
36.86
54.87
77.58
100.83
119.82
130.49
130.85
121.64
105.95
88.00
71.45
58.17
47.94
39.07
29.54
17.91
3.80
-12.28
-29.15
-45.33
-59.12
-68.95
-73.69
-73.23
-68.68
-62.17
-56.07
-52.07
-50.52
-50.54
-50.74
-49.94
-47.83
-45.04
-42.86
-42.79
-46.13
-53.45
-64.21
-76.53
-87.45
-93.75
-93.10
-84.97
-70.91
-53.89
-37.12
-22.98
-12.49
-5.62
-1.70
0.02
0.33
0.02
-0.08
0.60
2.21
4.39
6.52
8.08
9.03
9.79
11.04
13.28
16.57
20.42
24.09
26.86
28.44
28.99
28.99
28.94
29.11
29.46
29.68
29.45
28.70
27.66
26.86
26.90
28.21
30.68
33.51
35.07
33.12
25.49
10.98
-9.61
-33.07
-54.22
-67.32
-68.05
-55.14
-31.11
-1.44
27.27
49.44
62.08
65.17
60.92
52.55
42.98
34.24
27.33
22.50
19.46
17.63
16.12
13.95
10.25
4.71
-2.33
-10.03
-17.46
-24.01
-29.55
-34.28
-38.34
-41.48
-42.90
-41.53
-36.56
-28.02
-17.03
-5.57
4.18
10.56
12.97
11.90
8.42
3.71
-1.38
-6.27
-10.42
-13.06
-13.28
-10.54
-5.24
1.04
5.97
7.33
4.05
-3.25
-12.43
-20.73
-25.84
-26.75
-23.91
-18.82
-13.21
-8.36
-4.73
-2.13
-0.13
1.60
3.06
4.09
4.58
4.65
4.74
5.35
6.92
9.55
13.06
17.01
20.84
24.11
26.51
27.91
28.34
27.94
26.89
25.38
23.53
21.30
18.56
15.17
11.10
6.61
2.25
-1.12
-2.53
-1.11
3.64
11.58
21.79
32.65
42.08
48.06
49.13
44.84
35.91
23.97
11.14
-0.61
-9.80
-15.66
-18.07
-17.38
-14.34
-10.05
-5.90
-3.29
-3.34
-6.46
-12.19
-19.31
-26.37
-32.12
-36.02
-38.35
-40.03
-42.38
-46.58
-53.36
-62.48
-72.44
-80.63
-83.94
-79.95
-68.01
-49.79
-28.88
-9.51
4.98
13.21
15.86
14.93
12.61
10.36
8.72
7.63
6.93
6.68
7.06
8.08
9.36
10.22
9.99
8.45
6.06
3.78
2.69
3.43
5.89
9.27
12.48
14.62
15.42
15.23
14.84
15.15
16.84
20.23
25.09
30.62
35.50
38.13
37.04
31.48
21.69
8.85
-5.28
-18.84
-30.20
-37.90
-40.61
-37.23
-27.23
-11.23
8.73
29.45
47.41
59.88
65.68
65.29
60.33
52.78
44.26
35.74
27.59
19.92
12.84
6.66
1.86
-1.00
-1.54
0.21
3.67
7.76
11.08
12.32
10.67
6.14
-0.36
-7.20
-12.52
-14.74
-13.17
-8.30
-1.95
3.02
3.36
-3.55
-18.65
-40.45
-65.17
-87.82
-103.85
-110.68
-108.34
-98.99
-85.62
-70.77
-55.87
-41.54
-28.27
-16.93
-8.70
-4.45
-4.09
-6.51
-10.05
-13.37
-15.98
-18.28
-20.98
-24.38
-27.87
-30.13
-29.64
-25.51
-17.96
-8.35
1.41
9.56
15.14
18.23
19.70
20.70
22.06
24.05
26.39
28.50
29.95
30.62
30.84
31.15
32.00
33.51
35.27
36.37
35.58
31.64
23.78
12.22
-1.38
-13.96
-21.71
-21.31
-11.25
7.34
30.97
54.89
74.83
88.22
94.65
95.31
91.97
86.12
78.66
70.05
60.71
51.12
41.85
33.28
25.50
18.34
11.56
5.05
-1.21
-7.15
-12.73
-17.90
-22.42
-25.76
-27.14
-25.77
-21.24
-13.86
-4.61
5.04
13.42
18.82
19.51
13.82
0.63
-20.05
-46.40
-74.69
-100.02
-117.64
-124.46
-120.00
-106.28
-86.92
-65.86
-46.20
-29.74
-17.02
-7.76
-1.33
3.00
5.98
8.38
11.02
14.53
19.16
24.51
29.59
33.13
34.08
32.13
27.89
22.71
18.16
15.42
14.85
16.05
18.14
20.24
21.81
22.70
22.93
22.45
21.00
18.23
13.87
8.06
1.26
-5.82
-12.50
-18.39
-23.36
-27.55
-31.11
-34.13
-36.58
-38.29
-39.05
-38.67
-37.00
-34.04
-29.97
-25.22
-20.42
-16.33
-13.72
-13.07
-14.50
-17.63
-21.66
-25.58
-28.42
-29.53
-28.69
-26.14
-22.37
-17.95
-13.38
-8.98
-4.93
-1.30
1.99
5.11
8.35
12.03
16.44
21.67
27.67
34.24
41.12
48.03
54.66
60.61
65.42
68.69
70.15
69.73
67.56
63.88
58.86
52.67
45.50
37.69
29.78
22.46
16.39
12.01
9.46
8.55
8.95
10.37
12.66
15.91
20.30
25.90
32.50
39.47
45.82
50.45
52.44
51.32
47.21
40.77
32.96
24.81
17.20
10.74
5.72
2.11
-0.32
-1.99
-3.45
-5.31
-8.13
-12.29
-17.90
-24.65
-31.95
-39.01
-45.15
-49.93
-53.31
-55.44
-56.55
-56.75
-56.02
-54.36
-51.99
-49.48
-47.67
-47.38
-49.10
-52.66
-57.24
-61.52
-64.14
-64.00
-60.56
-53.87
-44.53
-33.57
-22.32
-12.22
-4.54
-0.11
0.92
-0.84
-4.23
-7.89
-10.71
-12.06
-11.83
-10.27
-7.74
-4.52
-0.73
3.63
8.57
14.02
19.75
25.38
30.45
34.49
37.10
38.05
37.25
34.82
31.00
26.14
20.74
15.29
10.19
5.62
1.47
-2.51
-6.59
-10.77
-14.74
-17.90
-19.64
-19.57
-17.78
-14.81
-11.46
-8.53
-6.56
-5.64
-5.45
-5.42
-4.93
-3.64
-1.63
0.49
1.67
0.76
-3.11
-10.12
-19.53
-29.70
-38.57
-44.21
-45.47
-42.27
-35.61
-27.15
-18.60
-11.26
-5.62
-1.44
2.15
6.25
11.86
19.60
29.49
40.93
52.88
64.13
73.59
80.49
84.45
85.46
83.80
79.90
74.34
67.75
60.73
53.75
47.06
40.65
34.31
27.78
20.98
14.11
7.71
2.40
-1.34
-3.49
-4.67
-5.90
-8.29
-12.49
-18.38
-25.09
-31.22
-35.41
-36.83
-35.41
-31.97
-27.95
-25.02
-24.64
-27.63
-33.91
-42.42
-51.32
-58.46
-61.98
-60.84
-55.12
-45.93
-35.02
-24.19
-14.82
-7.63
-2.68
0.38
2.02
2.66
2.64
2.28
1.90
1.83
2.28
3.26
4.59
5.93
6.90
7.25
6.92
6.10
5.09
4.21
3.66
3.42
3.36
3.30
3.18
3.16
3.49
4.45
6.11
8.25
10.38
11.95
12.61
12.37
11.60
10.87
10.70
11.33
12.65
14.25
15.63
16.40
16.37
15.65
14.55
13.47
12.67
12.25
12.00
11.50
10.17
7.43
2.88
-3.55
-11.52
-20.23
-28.60
-35.47
-39.92
-41.49
-40.34
-37.14
-32.89
-28.63
-25.16
-22.92
-21.83
-21.44
-21.05
-19.90
-17.41
-13.31
-7.70
-0.98
6.25
13.38
19.82
25.15
29.09
31.51
32.51
32.28
31.14
29.44
27.50
25.58
23.88
22.52
21.54
20.92
20.51
20.10
19.40
18.20
16.33
13.83
10.89
7.95
5.62
4.63
5.50
8.26
12.21
16.06
18.32
17.98
14.96
10.18
5.07
0.87
-1.89
-3.47
-4.44
-5.16
-5.52
-5.09
-3.59
-1.25
1.13
2.59
2.41
0.47
-2.73
-6.38
-9.69
-12.07
-13.27
-13.28
-12.29
-10.61
-8.58
-6.50
-4.57
-2.88
-1.42
-0.14
0.98
1.96
2.79
3.48
4.02
4.34
4.28
3.58
1.99
-0.61
-4.01
-7.66
-10.73
-12.47
-12.51
-11.05
-8.80
-6.73
-5.58
-5.64
-6.63
-7.85
-8.46
-7.81
-5.64
-2.13
2.11
6.16
9.09
10.14
8.98
5.84
1.39
-3.39
-7.58
-10.54
-11.98
-12.06
-11.20
-9.93
-8.70
-7.70
-6.83
-5.73
-4.05
-1.57
1.68
5.36
9.07
12.48
15.45
18.04
20.36
22.44
24.15
25.21
25.33
24.28
21.99
18.47
13.84
8.26
1.91
-4.97
-12.13
-19.35
-26.52
-33.57
-40.43
-46.79
-51.98
-55.06
-55.06
-51.48
-44.59
-35.55
-26.05
-17.84
-12.16
-9.51
-9.67
-11.94
-15.45
-19.31
-22.64
-24.59
-24.41
-21.68
-16.45
-9.35
-1.45
6.08
12.25
16.42
18.41
18.44
16.99
14.75
12.41
10.62
9.81
10.16
11.52
13.51
15.63
17.40
18.57
19.12
19.34
19.63
20.32
21.45
22.75
23.68
23.69
22.53
20.46
18.23
16.89
17.33
19.95
24.34
29.24
32.75
32.80
27.67
16.60
0.18
-19.49
-39.04
-54.67
-63.13
-62.74
-53.93
-38.99
-21.24
-3.82
11.17
22.95
31.69
37.82
41.59
43.05
42.42
40.47
38.39
37.42
38.12
40.06
41.94
42.28
40.14
35.59
29.63
23.67
18.79
15.41
13.17
11.30
9.11
6.24
2.76
-1.00
-4.68
-8.10
-11.32
-14.60
-18.38
-23.16
-29.31
-36.94
-45.60
-54.24
-61.36
-65.46
-65.48
-61.20
-53.35
-43.27
-32.48
-22.22
-13.26
-5.91
-0.26
3.72
6.05
6.90
6.66
5.95
5.44
5.66
6.79
8.67
10.90
13.05
14.89
16.43
17.89
19.53
21.55
23.94
26.42
28.34
28.88
27.17
22.63
15.29
5.83
-4.52
-14.37
-22.55
-28.48
-32.11
-33.83
-34.10
-33.23
-31.21
-27.83
-22.83
-16.20
-8.34
-0.09
7.39
12.91
15.55
14.95
11.45
6.11
0.51
-3.70
-5.20
-3.41
1.33
7.97
15.20
21.90
27.45
31.72
34.85
36.97
38.11
38.23
37.43
35.98
34.20
32.26
30.06
27.28
23.62
19.09
14.07
9.30
5.63
3.74
4.02
6.35
10.14
14.34
17.61
18.66
16.53
10.99
2.57
-7.41
-17.27
-25.43
-30.87
-33.48
-34.04
-33.99
-34.93
-38.08
-43.92
-51.92
-60.68
-68.13
-72.07
-70.83
-63.79
-51.79
-36.94
-22.04
-9.75
-1.81
1.29
0.05
-4.51
-11.33
-19.36
-27.47
-34.23
-38.17
-38.18
-34.04
-26.66
-17.69
-8.92
-1.51
4.25
8.84
12.95
17.03
21.02
24.45
26.80
27.75
27.34
25.94
24.05
22.05
20.07
17.97
15.50
12.44
8.77
4.65
0.33
-3.95
-7.98
-11.59
-14.54
-16.51
-17.22
-16.49
-14.38
-11.22
-7.48
-3.68
-0.20
2.72
5.02
6.73
7.94
8.76
9.28
9.53
9.52
9.29
8.93
8.64
8.63
9.08
10.00
11.28
12.73
14.15
15.33
16.02
15.88
14.59
12.02
8.48
4.82
2.22
1.78
4.02
8.62
14.61
20.78
26.17
30.41
33.62
36.15
38.26
40.11
41.72
43.12
44.27
44.94
44.63
42.59
38.17
31.09
21.78
11.33
1.27
-6.92
-12.16
-14.11
-13.25
-10.73
-8.21
-7.47
-10.03
-16.80
-27.69
-41.59
-56.57
-70.35
-80.83
-86.46
-86.37
-80.38
-68.95
-53.26
-35.23
-17.34
-2.16
8.31
13.18
12.83
8.66
2.47
-4.07
-9.61
-13.20
-14.18
-12.20
-7.44
-0.71
6.59
12.91
17.06
18.48
17.31
14.23
10.04
5.49
1.23
-2.27
-4.67
-5.81
-5.81
-5.02
-3.94
-2.98
-2.30
-1.82
-1.25
-0.40
0.75
1.95
2.86
3.21
3.06
2.75
2.81
3.70
5.59
8.13
10.42
11.18
9.08
3.23
-6.29
-18.23
-30.28
-39.64
-43.83
-41.39
-32.18
-17.36
1.10
20.80
39.39
54.77
65.36
70.34
69.84
64.91
57.27
48.81
41.08
34.99
30.75
28.03
26.22
24.58
22.40
19.18
14.63
8.85
2.18
-4.87
-11.77
-18.04
-23.13
-26.46
-27.44
-25.73
-21.53
-15.71
-9.67
-4.92
-2.64
-3.28
-6.58
-11.70
-17.54
-23.00
-27.20
-29.61
-30.16
-29.21
-27.48
-25.72
-24.45
-23.86
-23.77
-23.85
-23.83
-23.56
-23.04
-22.35
-21.58
-20.86
-20.35
-20.29
-20.82
-21.89
-23.17
-24.16
-24.36
-23.41
-21.25
-18.15
-14.58
-11.06
-7.95
-5.40
-3.40
-1.85
-0.59
0.56
1.79
3.25
5.05
7.40
10.37
13.73
16.97
19.49
20.83
20.85
19.74
17.94
16.26
15.44
15.83
17.40
19.89
23.11
26.93
31.25
35.92
40.98
46.49
52.19
57.60
62.13
65.14
66.02
64.16
57.37
45.03
28.95
12.84
0.16
-7.84
-12.39
-15.93
-20.66
-27.41
-35.27
-42.39
-47.34
-49.67
-49.79
-48.46
-46.31
-43.62
-40.46
-37.13
-33.37
-29.58
-26.48
-24.69
-24.34
-24.97
-25.79
-25.96
-24.78
-21.93
-17.98
-14.05
-11.41
-10.90
-12.57
-15.58
-18.45
-19.46
-17.04
-10.60
-0.57
11.88
25.20
37.90
48.71
56.68
61.21
62.25
60.23
56.23
51.70
48.00
45.84
44.92
44.15
42.21
38.25
32.27
25.12
18.02
11.95
7.34
4.06
1.77
0.22
-0.57
-0.44
0.72
2.81
5.54
8.47
11.23
13.65
15.83
18.11
20.76
23.77
26.61
28.31
27.81
24.46
18.40
10.55
2.38
-4.76
-9.98
-13.03
-14.14
-13.72
-12.07
-9.37
-5.78
-1.68
2.24
5.11
6.10
4.75
1.22
-3.63
-8.52
-12.04
-13.10
-11.30
-7.06
-1.52
3.76
7.32
8.33
6.95
4.26
1.84
1.00
2.19
4.65
6.81
7.04
4.42
-0.84
-7.65
-14.77
-21.55
-28.14
-35.25
-43.41
-52.44
-61.32
-68.72
-73.63
-75.85
-76.08
-75.67
-76.30
-79.64
-87.09
-99.32
-115.79
-134.33
-151.47
-163.41
-167.38
-162.76
-151.26
-136.07
-120.36
-105.85
-92.39
-78.37
-61.94
-42.09
-19.30
4.67
27.50
47.20
62.80
74.45
83.00
89.46
94.38
97.75
99.25
98.71
96.48
93.47
90.74
89.02
88.31
87.89
86.72
83.98
79.51
73.86
67.92
62.51
58.11
54.90
53.09
53.10
55.39
59.94
65.81
71.07
73.43
71.23
64.25
53.91
42.68
33.02
26.42
23.07
22.17
22.55
23.29
23.88
24.11
23.79
22.59
20.13
16.18
10.83
4.53
-2.08
-8.32
-13.76
-18.22
-21.78
-24.71
-27.31
-29.83
-32.46
-35.21
-37.95
-40.35
-41.99
-42.45
-41.38
-38.69
-34.52
-29.32
-23.88
-19.23
-16.51
-16.62
-19.82
-25.55
-32.37
-38.37
-41.80
-41.63
-37.88
-31.52
-24.03
-16.82
-10.84
-6.44
-3.51
-1.69
-0.53
0.41
1.62
3.52
6.39
10.16
14.39
18.31
21.06
22.02
21.04
18.55
15.38
12.55
10.90
10.90
12.58
15.56
19.25
23.05
26.47
29.18
30.94
31.69
31.56
31.03
30.83
31.74
34.15
37.72
41.25
43.09
41.80
36.78
28.58
18.63
8.67
0.06
-6.51
-11.07
-14.06
-15.99
-17.28
-18.15
-18.70
-18.89
-18.57
-17.67
-16.31
-14.96
-14.43
-15.51
-18.67
-23.55
-29.02
-33.53
-35.80
-35.46
-33.28
-30.88
-29.89
-31.24
-34.84
-39.77
-44.80
-48.88
-51.16
-50.77
-46.93
-39.57
-30.35
-23.17
-23.23
-34.78
-58.46
-90.21
-122.38
-146.89
-158.62
-157.11
-145.91
-130.01
-113.20
-96.77
-80.32
-63.45
-47.15
-33.62
-24.77
-20.96
-20.35
-19.65
-15.52
-6.03
8.53
25.85
42.99
58.03
70.28
80.28
89.10
97.54
105.70
113.05
118.59
121.91
124.01
126.27
130.02
136.03
144.31
154.13
163.98
171.36
173.98
170.99
162.39
149.29
133.87
119.05
107.94
103.09
105.50
109.07
109.03
102.53
89.76
72.62
52.64
30.42
9.21
-12.22
-34.02
-54.22
-70.78
-82.47
-89.50
-92.69
-93.26
-92.55
-92.17
-92.69
-93.45
-93.69
-92.95
-91.34
-89.63
-89.04
-90.86
-96.38
-105.54
-116.69
-127.40
-135.16
-138.07
-135.26
-126.89
-113.85
-97.67
-79.76
-61.41
-44.03
-29.05
-17.62
-10.19
-6.31
-4.81
-4.30
-3.45
-1.33
2.39
7.53
13.63
20.02
25.92
30.59
33.39
34.05
32.71
29.82
26.05
22.13
18.73
16.36
15.31
15.72
17.57
20.73
24.98
30.02
35.45
40.83
45.74
49.92
53.33
56.09
58.20
59.30
58.52
54.73
47.09
35.68
21.87
8.01
-3.29
-10.12
-11.96
-9.77
-5.48
-1.23
1.30
1.19
-1.80
-7.36
-14.86
-23.35
-31.64
-38.46
-42.65
-43.55
-41.14
-36.01
-29.24
-22.04
-15.48
-10.31
-6.83
-4.94
-4.17
-3.85
-3.31
-2.04
0.16
3.21
6.79
10.54
14.21
17.70
21.12
24.66
28.53
32.83
37.56
42.60
47.78
52.95
58.00
62.81
67.21
70.94
73.69
75.14
75.06
73.38
70.22
65.89
60.85
55.59
50.43
45.45
40.41
34.92
28.63
21.57
14.30
7.76
3.00
0.65
0.72
2.54
5.11
7.49
9.20
10.32
11.31
12.79
15.31
19.29
25.03
32.57
41.34
49.72
55.03
54.07
44.28
25.06
-1.60
-31.46
-59.43
-81.27
-94.79
-100.11
-98.88
-93.14
-84.53
-74.06
-62.42
-50.46
-39.24
-29.76
-22.56
-17.44
-13.60
-10.10
-6.37
-2.50
0.78
2.49
1.86
-1.24
-6.25
-12.07
-17.55
-21.87
-24.78
-26.58
-27.80
-28.86
-29.95
-31.02
-32.11
-33.45
-35.56
-38.90
-43.56
-49.00
-54.02
-57.09
-56.74
-52.01
-42.79
-29.92
-15.17
-0.84
10.78
18.04
20.31
17.97
12.16
4.26
-4.39
-12.67
-19.61
-24.37
-26.35
-25.43
-22.08
-17.24
-12.00
-7.12
-2.76
1.45
6.13
11.82
18.65
26.23
33.67
39.75
43.25
43.28
39.58
32.63
23.44
13.20
3.00
-6.42
-14.62
-21.28
-26.21
-29.25
-30.51
-30.39
-29.52
-28.52
-27.70
-26.94
-25.81
-23.82
-20.75
-16.81
-12.50
-8.43
-5.06
-2.56
-0.80
0.45
1.44
2.28
2.99
3.50
3.83
4.05
4.31
4.77
5.55
6.66
8.09
9.81
11.75
13.84
15.95
17.90
19.46
20.48
20.88
20.75
20.31
19.80
19.41
19.20
19.09
18.94
18.63
18.19
17.85
18.03
19.23
21.86
26.00
31.29
36.99
42.09
45.70
47.26
46.74
44.55
41.37
37.85
34.37
30.99
27.49
23.55
18.90
13.46
7.39
1.12
-4.68
-9.29
-12.14
-13.09
-12.55
-11.44
-10.83
-11.54
-13.75
-16.97
-20.35
-23.10
-24.91
-25.95
-26.61
-27.14
-27.38
-26.96
-25.59
-23.37
-21.03
-19.73
-20.85
-25.68
-35.12
-49.19
-66.62
-84.66
-99.51
-107.37
-105.71
-94.37
-75.68
-53.76
-33.08
-17.10
-7.38
-3.55
-3.89
-6.14
-8.26
-8.83
-7.24
-3.55
1.65
7.51
13.10
17.57
20.30
21.04
19.97
17.84
15.71
14.58
15.00
16.81
19.29
21.60
23.27
24.47
26.02
28.82
33.29
38.74
43.46
45.14
41.85
32.98
19.74
4.98
-7.65
-14.78
-14.40
-6.40
7.44
23.99
39.70
51.59
57.95
58.69
55.14
49.41
43.61
39.21
36.77
36.12
36.70
37.85
38.91
39.16
37.92
34.64
29.16
21.82
13.16
3.42
-7.78
-21.41
-38.30
-58.35
-79.83
-99.58
-113.79
-119.40
-115.21
-102.42
-84.26
-64.90
-48.20
-36.65
-30.98
-30.42
-33.29
-37.61
-41.64
-43.97
-43.59
-39.91
-32.90
-23.21
-12.23
-1.62
7.15
13.38
17.30
19.70
21.39
22.65
23.19
22.42
20.04
16.52
13.03
11.07
11.75
15.24
20.59
25.99
29.53
29.91
27.01
21.89
16.48
12.85
12.55
16.05
22.50
29.98
35.89
37.84
34.36
25.51
12.86
-0.96
-13.18
-21.64
-25.33
-24.32
-19.41
-11.57
-1.76
9.06
19.76
28.95
35.16
37.30
35.08
29.21
21.26
13.18
6.65
2.63
1.10
1.10
1.18
-0.17
-3.98
-10.42
-18.73
-27.41
-34.54
-38.40
-37.92
-33.08
-24.92
-15.36
-6.66
-0.80
1.17
-0.65
-5.11
-10.50
-15.22
-18.31
-19.61
-19.53
-18.67
-17.52
-16.29
-15.08
-13.98
-13.17
-12.76
-12.67
-12.57
-11.99
-10.55
-8.20
-5.29
-2.40
-0.13
1.13
1.34
0.76
-0.14
-0.98
-1.51
-1.72
-1.75
-1.81
-1.98
-2.20
-2.21
-1.74
-0.60
1.20
3.42
5.69
7.62
8.95
9.61
9.69
9.36
8.81
8.20
7.60
7.05
6.51
5.93
5.23
4.39
3.45
2.49
1.64
0.99
0.60
0.42
0.38
0.39
0.37
0.26
0.06
-0.24
-0.59
-0.91
-1.11
-1.17
-1.07
-0.89
-0.69
-0.53
-0.37
-0.08
0.56
1.75
3.61
6.10
9.02
12.04
14.78
16.95
18.40
19.09
19.12
18.63
17.76
16.65
15.36
13.93
12.34
10.58
8.70
6.81
5.09
3.69
2.67
1.97
1.44
0.90
0.27
-0.39
-1.00
-1.40
-1.56
-1.54
-1.52
-1.73
-2.35
-3.45
-4.93
-6.54
-7.98
-8.94
-9.28
-8.98
-8.15
-6.92
-5.46
-3.92
-2.46
-1.24
-0.40
0.04
0.12
-0.05
-0.39
-0.91
-1.67
-2.67
-3.77
-4.68
-5.00
-4.50
-3.25
-1.70
-0.53
-0.39
-1.65
-4.20
-7.56
-10.94
-13.50
-14.54
-13.58
-10.44
-5.28
1.46
9.03
16.55
23.14
28.14
31.34
32.94
33.55
33.95
34.85
36.70
39.62
43.42
47.65
51.70
54.92
56.60
56.14
53.19
47.84
40.67
32.63
24.79
17.92
12.20
7.14
1.73
-5.12
-14.03
-24.82
-36.37
-46.92
-54.57
-57.89
-56.36
-50.50
-41.66
-31.63
-22.12
-14.47
-9.46
-7.30
-7.74
-10.09
-13.33
-16.31
-17.94
-17.45
-14.61
-9.83
-4.06
1.52
5.86
8.30
8.83
7.90
6.18
4.24
2.36
0.61
-0.98
-2.23
-2.79
-2.33
-0.78
1.50
3.84
5.55
6.30
6.28
6.05
6.27
7.26
8.87
10.48
11.29
10.58
7.91
3.19
-3.31
-11.05
-19.28
-27.15
-33.78
-38.45
-40.77
-40.70
-38.57
-34.92
-30.39
-25.51
-20.62
-15.90
-11.44
-7.39
-4.00
-1.64
-0.64
-1.17
-3.02
-5.61
-8.05
-9.36
-8.71
-5.66
-0.29
6.87
14.95
22.88
29.68
34.58
37.26
37.94
37.32
36.41
36.15
37.08
39.08
41.48
43.31
43.77
42.49
39.72
36.14
32.60
29.81
28.17
27.68
28.06
28.78
29.25
28.87
27.23
24.19
19.93
14.95
9.94
5.58
2.31
0.23
-0.93
-1.66
-2.49
-3.77
-5.59
-7.79
-10.14
-12.51
-14.95
-17.77
-21.36
-26.03
-31.85
-38.49
-45.22
-51.01
-54.70
-55.29
-52.23
-45.62
-36.36
-25.95
-16.17
-8.56
-3.95
-2.20
-2.38
-3.21
-3.64
-3.20
-2.06
-0.70
0.45
1.31
2.11
3.13
4.45
5.82
6.81
7.04
6.39
5.09
3.56
2.21
1.26
0.64
0.10
-0.66
-1.82
-3.35
-5.00
-6.44
-7.40
-7.75
-7.58
-7.16
-6.81
-6.79
-7.13
-7.64
-7.93
-7.58
-6.29
-4.04
-1.05
2.29
5.53
8.34
10.52
12.00
12.89
13.41
13.84
14.51
15.67
17.31
19.15
20.64
21.15
20.23
17.81
14.29
10.38
6.89
4.45
3.34
3.48
4.55
6.18
8.07
10.03
12.00
13.93
15.75
17.34
18.52
19.11
18.98
18.06
16.39
14.06
11.18
7.88
4.26
0.44
-3.41
-7.04
-10.08
-12.11
-12.73
-11.78
-9.45
-6.28
-3.07
-0.61
0.56
0.25
-1.38
-3.96
-7.15
-10.72
-14.44
-18.03
-21.07
-23.02
-23.40
-22.05
-19.20
-15.47
-11.66
-8.53
-6.64
-6.19
-7.08
-9.02
-11.60
-14.48
-17.38
-20.06
-22.30
-23.90
-24.77
-25.02
-25.00
-25.20
-25.99
-27.41
-29.01
-30.03
-29.72
-27.65
-23.97
-19.35
-14.74
-11.09
-9.07
-8.95
-10.57
-13.44
-16.86
-20.17
-22.96
-25.10
-26.79
-28.31
-29.78
-31.05
-31.74
-31.40
-29.73
-26.77
-22.78
-18.15
-13.22
-8.18
-3.17
1.71
6.23
10.10
13.00
14.75
15.36
15.11
14.47
13.99
14.11
14.99
16.54
18.40
20.12
21.37
22.02
22.23
22.33
22.68
23.55
25.06
27.12
29.48
31.83
33.80
35.07
35.36
34.41
31.93
27.68
21.53
13.72
4.93
-3.72
-10.91
-15.48
-16.76
-14.61
-9.32
-1.35
8.77
20.31
32.27
43.36
52.26
58.07
60.65
60.67
59.22
57.31
55.44
53.51
51.04
47.59
42.95
37.25
30.76
23.72
16.31
8.69
1.14
-5.96
-12.17
-17.23
-21.17
-24.32
-27.16
-30.03
-33.04
-35.97
-38.53
-40.50
-41.93
-43.07
-44.18
-45.32
-46.20
-46.33
-45.18
-42.49
-38.36
-33.27
-27.92
-23.02
-19.13
-16.55
-15.25
-14.98
-15.29
-15.74
-15.96
-15.70
-14.84
-13.34
-11.25
-8.64
-5.65
-2.48
0.67
3.65
6.39
8.93
11.26
13.34
15.03
16.21
16.91
17.27
17.55
17.86
18.12
18.00
17.12
15.22
12.38
9.01
5.68
2.90
0.88
-0.47
-1.41
-2.19
-2.85
-3.27
-3.28
-2.83
-2.07
-1.31
-0.89
-1.00
-1.58
-2.41
-3.20
-3.70
-3.81
-3.50
-2.84
-1.88
-0.69
0.66
2.08
3.44
4.65
5.60
6.21
6.44
6.28
5.81
5.17
4.54
4.10
3.99
4.20
4.63
5.10
5.41
5.43
5.14
4.64
4.08
3.53
2.99
2.36
1.54
0.51
-0.58
-1.50
-2.02
-2.02
-1.55
-0.79
-0.01
0.59
0.95
1.13
1.34
1.79
2.71
4.20
6.28
8.75
11.32
13.61
15.29
16.24
16.56
16.52
16.39
16.23
15.83
14.80
12.74
9.58
5.61
1.49
-1.97
-4.09
-4.50
-3.18
-0.44
3.19
7.08
10.62
13.32
14.93
15.48
15.19
14.35
13.11
11.48
9.38
6.84
4.15
1.79
0.25
-0.27
-0.00
0.46
0.45
-0.48
-2.32
-4.65
-6.78
-8.04
-8.06
-6.87
-4.97
-3.22
-2.71
-4.41
-8.75
-15.24
-22.39
-28.12
-30.49
-28.56
-22.82
-15.00
-7.41
-1.98
0.29
-0.51
-3.58
-7.95
-12.72
-17.22
-20.78
-22.66
-22.24
-19.21
-13.93
-7.43
-1.14
3.51
5.61
5.02
2.40
-1.12
-4.39
-6.66
-7.81
-8.26
-8.66
-9.50
-10.81
-12.25
-13.19
-13.10
-11.74
-9.19
-5.84
-2.17
1.37
4.51
7.15
9.30
11.00
12.23
12.87
12.72
11.60
9.51
6.69
3.63
1.00
-0.54
-0.42
1.69
5.74
11.19
16.95
21.58
23.53
21.63
15.41
5.35
-7.22
-20.38
-32.05
-40.44
-44.38
-43.57
-38.60
-30.76
-21.64
-12.61
-4.43
2.84
9.59
16.17
22.51
27.92
31.44
32.32
30.44
26.51
21.83
17.85
15.58
15.37
16.89
19.37
21.88
23.60
23.88
22.32
18.79
13.51
7.17
0.90
-3.96
-6.24
-5.42
-1.91
2.94
7.31
9.54
8.72
5.01
-0.47
-6.18
-10.72
-13.25
-13.63
-12.23
-9.68
-6.63
-3.64
-1.22
0.21
0.31
-1.01
-3.50
-6.62
-9.64
-11.86
-12.81
-12.36
-10.69
-8.14
-5.15
-2.11
0.66
2.92
4.57
5.56
5.98
5.97
5.70
5.35
5.04
4.82
4.70
4.57
4.31
3.74
2.75
1.39
-0.12
-1.51
-2.54
-3.17
-3.50
-3.74
-4.04
-4.43
-4.81
-5.11
-5.31
-5.50
-5.78
-6.15
-6.49
-6.57
-6.18
-5.27
-3.97
-2.55
-1.30
-0.40
0.11
0.37
0.56
0.80
1.11
1.36
1.36
0.95
0.07
-1.20
-2.65
-4.06
-5.22
-5.98
-6.25
-5.98
-5.20
-4.06
-2.82
-1.82
-1.40
-1.75
-2.87
-4.49
-6.23
-7.68
-8.56
-8.78
-8.42
-7.63
-6.54
-5.28
-3.97
-2.75
-1.85
-1.58
-2.19
-3.79
-6.34
-9.57
-13.12
-16.60
-19.67
-22.03
-23.47
-23.89
-23.30
-21.84
-19.79
-17.46
-15.03
-12.55
-9.93
-7.05
-3.80
-0.14
3.90
8.23
12.70
17.12
21.23
24.74
27.34
28.91
29.59
29.67
29.42
28.95
28.16
26.89
24.89
22.02
18.45
14.74
11.51
9.21
7.95
7.50
7.55
7.66
7.52
7.29
7.63
9.25
12.60
17.73
24.34
31.99
39.74
46.16
49.58
48.67
42.70
32.15
18.95
4.86
-6.54
-12.04
-10.83
-5.42
1.46
8.00
13.68
18.93
24.49
30.84
37.50
43.31
47.16
48.62
47.66
44.44
39.11
31.65
22.18
10.80
-2.14
-15.87
-29.09
-40.55
-49.34
-55.09
-57.99
-58.66
-58.13
-57.50
-57.59
-58.63
-60.37
-62.29
-63.76
-64.28
-63.53
-61.61
-58.92
-56.07
-53.64
-52.04
-51.33
-51.15
-50.70
-48.93
-44.95
-38.34
-29.35
-18.91
-8.37
0.86
7.76
11.94
13.62
13.37
11.92
9.88
7.77
6.06
5.18
5.45
6.78
8.64
10.03
9.95
7.76
3.64
-1.43
-6.04
-8.83
-9.10
-6.90
-3.02
1.50
5.69
8.94
11.02
11.98
12.02
11.36
10.29
9.17
8.38
8.26
8.98
10.51
12.59
14.82
16.80
18.21
18.94
19.09
18.94
18.81
18.93
19.34
19.87
20.17
19.86
18.64
16.40
13.27
9.51
5.49
1.59
-1.84
-4.49
-6.08
-6.35
-5.11
-2.31
1.95
7.32
13.27
19.14
24.28
28.11
30.23
30.52
29.15
26.59
23.49
20.50
18.04
16.22
14.82
13.53
12.12
10.63
9.32
8.47
8.15
8.14
8.01
7.26
5.64
3.17
0.08
-3.35
-7.02
-11.08
-15.82
-21.54
-28.36
-36.09
-44.31
-52.29
-59.07
-63.49
-64.44
-61.14
-53.54
-42.56
-29.97
