1561233984.00
64.000000
-0.00
-0.00
-0.00
-0.00
-0.00
-0.00
-0.00
-0.00
-0.00
-0.00
0.00
0.01
0.01
-0.00
-0.03
-0.05
-0.05
0.00
0.13
0.36
0.66
1.01
1.37
1.72
2.06
2.40
2.79
3.24
3.80
4.42
5.06
5.66
6.20
6.68
7.15
7.68
8.31
9.14
10.09
11.04
11.88
12.56
13.14
13.76
14.65
15.96
17.91
20.32
22.90
25.38
27.58
29.57
31.68
34.32
37.81
42.54
48.15
54.10
59.83
64.97
69.58
74.14
79.34
85.71
93.76
103.00
112.62
121.73
129.77
136.75
143.30
150.75
157.77
166.64
177.95
191.79
206.97
220.57
228.25
225.36
208.53
176.87
132.76
80.05
23.07
-34.94
-92.44
-149.16
-205.23
-260.37
-313.74
-363.87
-409.82
-450.88
-486.46
-515.67
-537.13
-549.09
-549.79
-538.15
-513.93
-478.35
-433.49
-382.00
-326.50
-269.25
-211.98
-155.93
-102.15
-51.49
-4.94
36.64
72.58
102.61
126.87
145.88
160.33
170.94
178.33
182.90
184.94
184.67
182.38
178.41
173.15
167.04
160.41
153.52
146.50
139.43
132.34
125.29
118.34
111.54
104.99
98.73
92.79
87.19
81.94
77.05
72.52
68.36
64.59
61.20
58.20
55.60
53.38
51.54
50.05
48.88
47.97
47.21
46.48
45.63
44.46
42.82
40.53
37.49
33.63
28.96
23.51
17.45
10.97
4.32
-2.23
-8.42
-14.01
-18.80
-22.66
-25.53
-27.38
-28.29
-28.37
-27.73
-26.53
-24.91
-23.01
-20.93
-18.74
-16.48
-14.19
-11.91
-9.62
-7.34
-5.06
-2.75
-0.42
1.95
4.40
6.88
9.39
11.91
14.45
17.05
19.72
22.54
25.58
28.95
32.64
36.68
41.12
46.02
51.50
57.65
64.58
72.41
81.25
90.98
101.47
112.53
123.95
135.47
146.83
157.73
167.92
177.20
185.13
191.37
195.66
197.78
197.57
194.81
189.24
180.43
169.72
157.85
145.43
132.99
120.98
109.82
99.86
91.38
84.63
79.75
76.49
74.56
73.60
73.28
73.25
73.27
73.13
72.69
71.80
70.11
67.24
62.88
56.74
48.70
38.80
27.25
14.38
0.56
-13.99
-29.14
-44.72
-60.52
-76.12
-90.86
-103.90
-114.42
-121.84
-126.08
-127.54
-126.96
-125.13
-122.68
-119.81
-116.46
-112.45
-107.88
-103.30
-99.71
-98.27
-99.86
-104.70
-112.22
-121.33
-130.88
-140.17
-149.29
-158.98
-170.39
-184.70
-202.98
-226.11
-254.47
-287.39
-322.51
-355.67
-381.75
-396.48
-398.41
-389.75
-375.44
-360.67
-348.29
-337.48
-324.89
-307.02
-282.89
-254.99
-228.24
-207.73
-196.95
-197.14
-207.92
-228.01
-255.27
-286.23
-315.75
-337.76
-347.28
-342.50
-325.62
-302.00
-277.72
-256.90
-240.42
-226.02
-209.69
-187.15
-155.20
-112.61
-60.63
-2.93
55.18
108.57
154.31
193.01
228.34
265.16
307.10
354.91
406.33
457.15
502.55
538.23
560.95
568.96
562.42
543.71
517.17
487.94
460.47
437.09
417.74
400.64
383.29
363.57
339.92
311.53
278.62
242.94
208.16
179.58
162.92
162.20
177.45
203.47
230.24
245.68
239.47
206.55
148.76
73.58
-9.26
-91.69
-169.45
-241.64
-308.07
-366.51
-411.74
-437.24
-438.56
-416.36
-376.76
-329.18
-282.45
-241.88
-208.43
-180.04
-154.18
-129.78
-107.54
-89.05
-75.39
-66.35
-60.54
-56.18
-51.83
-46.89
-41.54
-36.21
-31.14
-26.12
-20.58
-13.90
-5.88
3.01
11.62
18.64
23.18
25.35
26.22
27.36
30.13
35.11
41.99
49.76
57.18
63.20
67.05
68.30
66.79
62.73
56.77
49.97
43.57
38.55
35.31
33.61
32.73
31.82
30.20
27.46
23.38
17.66
9.91
-0.23
-12.83
-27.46
-43.12
-58.46
-72.09
-82.79
-89.68
-92.19
-89.97
-82.93
-71.27
-55.53
-36.44
-14.90
8.15
31.70
54.48
74.97
91.60
103.12
109.08
110.04
107.34
102.59
97.12
91.59
86.02
80.11
73.59
66.44
58.85
50.96
42.71
33.73
23.48
11.50
-2.29
-17.37
-32.61
-46.46
-57.35
-64.11
-66.36
-64.51
-59.42
-52.03
-43.04
-32.93
-22.16
-11.48
-1.96
5.27
9.52
10.87
10.25
8.96
8.18
8.43
9.54
10.85
11.77
12.01
11.70
11.14
10.55
9.86
8.79
7.05
4.56
1.52
-1.64
-4.49
-6.76
-8.33
-9.24
-9.57
-9.41
-8.83
-7.98
-7.00
-6.02
-5.03
-3.87
-2.31
-0.16
2.64
5.91
9.31
12.49
15.18
17.23
18.62
19.36
19.50
19.09
18.25
17.17
16.06
15.10
14.36
13.73
13.00
11.93
10.34
8.22
5.65
2.83
-0.04
-2.81
-5.40
-7.83
-10.19
-12.65
-15.31
-18.23
-21.32
-24.44
-27.37
-29.88
-31.79
-32.91
-33.08
-32.17
-30.17
-27.18
-23.56
-19.83
-16.52
-14.04
-12.48
-11.71
-11.42
-11.35
-11.31
-11.23
-11.02
-10.53
-9.57
-8.00
-5.80
-3.17
-0.48
1.93
3.82
5.15
6.07
6.78
7.49
8.31
9.21
10.14
11.07
11.97
12.84
13.69
14.50
15.32
16.22
17.35
18.82
20.68
22.78
24.86
26.61
27.84
28.47
28.63
28.44
27.95
27.14
25.90
24.21
22.20
20.13
18.31
16.98
16.19
15.85
15.74
15.68
15.59
15.48
15.38
15.26
15.09
14.81
14.44
14.08
13.77
13.49
13.14
12.55
11.71
10.70
9.75
9.05
8.65
8.43
8.18
7.76
7.11
6.33
5.50
4.65
3.70
2.52
1.02
-0.82
-2.89
-5.02
-6.99
-8.68
-10.00
-10.95
-11.61
-12.09
-12.53
-13.06
-13.79
-14.76
-15.88
-16.96
-17.70
-17.84
-17.19
-15.77
-13.80
-11.57
-9.37
-7.37
-5.60
-4.02
-2.62
-1.44
-0.55
0.01
0.31
0.48
0.64
0.85
1.03
1.07
0.80
0.20
-0.72
-1.82
-2.93
-3.86
-4.49
-4.76
-4.73
-4.56
-4.46
-4.66
-5.26
-6.26
-7.56
-9.02
-10.59
-12.25
-14.04
-15.93
-17.84
-19.58
-20.91
-21.71
-21.97
-21.83
-21.49
-21.12
-20.77
-20.41
-20.01
-19.58
-19.27
-19.24
-19.62
-20.42
-21.57
-22.97
-24.64
-26.77
-29.57
-33.20
-37.48
-41.88
-45.66
-48.08
-48.62
-47.06
-43.47
-38.09
-31.21
-23.24
-14.66
-6.09
1.88
8.76
14.35
18.68
21.95
24.35
25.95
26.77
26.79
26.10
24.88
23.42
21.97
20.70
19.71
19.08
18.86
19.13
19.92
21.22
22.86
24.60
26.14
27.18
27.53
27.14
26.07
24.52
22.68
20.70
18.61
16.38
13.94
11.32
8.65
6.08
3.73
1.61
-0.45
-2.65
-5.10
-7.71
-10.23
-12.37
-13.94
-14.92
-15.49
-15.86
-16.20
-16.55
-16.80
-16.77
-16.29
-15.29
-13.81
-11.94
-9.83
-7.56
-5.24
-2.96
-0.80
1.12
2.73
3.99
4.90
5.50
5.80
5.80
5.49
4.87
4.07
3.26
2.65
2.34
2.35
2.51
2.62
2.51
2.08
1.38
0.49
-0.48
-1.47
-2.47
-3.52
-4.66
-5.90
-7.21
-8.50
-9.66
-10.62
-11.36
-11.91
-12.34
-12.65
-12.81
-12.68
-12.06
-10.79
-8.83
-6.33
-3.58
-0.92
1.34
3.08
4.30
5.13
5.72
6.20
6.58
6.87
7.01
6.95
6.70
6.29
5.80
5.29
4.80
4.36
3.94
3.52
3.04
2.48
1.85
1.15
0.33
-0.72
-2.10
-3.92
-6.14
-8.54
-10.83
-12.67
-13.81
-14.18
-13.89
-13.12
-12.08
-10.86
-9.44
-7.74
-5.72
-3.41
-0.96
1.41
3.49
5.18
6.45
7.38
8.08
8.59
8.90
8.94
8.68
8.15
7.50
6.97
6.71
6.80
7.16
7.65
8.11
8.46
8.73
8.97
9.23
9.53
9.81
10.01
10.10
10.15
10.22
10.40
10.68
11.01
11.32
11.62
12.05
12.81
14.03
15.70
17.56
19.21
20.22
20.34
19.58
18.13
16.28
14.19
11.93
9.46
6.78
4.02
1.42
-0.69
-2.10
-2.75
-2.86
-2.80
-2.91
-3.36
-4.13
-5.01
-5.86
-6.65
-7.49
-8.55
-9.91
-11.49
-13.08
-14.43
-15.42
-16.04
-16.40
-16.64
-16.83
-16.95
-16.96
-16.79
-16.43
-15.98
-15.56
-15.27
-15.13
-15.04
-14.77
-14.05
-12.71
-10.73
-8.31
-5.74
-3.37
-1.40
0.09
1.16
1.92
2.41
2.64
2.56
2.18
1.57
0.85
0.14
-0.53
-1.20
-1.89
-2.59
-3.21
-3.63
-3.78
-3.72
-3.65
-3.80
-4.32
-5.21
-6.37
-7.60
-8.79
-9.83
-10.75
-11.60
-12.39
-13.06
-13.57
-13.80
-13.74
-13.39
-12.75
-11.83
-10.59
-9.01
-7.11
-4.94
-2.57
-0.13
2.20
4.25
5.77
6.62
6.80
6.46
5.89
5.34
4.91
4.51
3.97
3.15
2.11
1.06
0.24
-0.24
-0.50
-0.85
-1.62
-2.99
-4.93
-7.20
-9.59
-11.97
-14.42
-17.07
-19.97
-22.94
-25.57
-27.37
-27.94
-27.16
-25.18
-22.33
-18.94
-15.27
-11.48
-7.77
-4.30
-1.27
1.21
3.16
4.74
6.11
7.42
8.74
10.05
11.33
12.51
13.57
14.49
15.27
15.92
16.39
16.63
16.54
16.05
15.10
13.73
12.01
10.09
8.13
6.23
4.45
2.80
1.32
0.06
-0.94
-1.64
-2.05
-2.22
-2.21
-2.12
-2.03
-1.95
-1.90
-1.84
-1.71
-1.40
-0.79
0.21
1.61
3.28
5.04
6.68
8.05
9.12
9.91
10.43
10.68
10.63
10.29
9.72
8.98
8.17
7.29
6.33
5.27
4.15
3.05
2.09
1.35
0.78
0.30
-0.19
-0.78
-1.47
-2.25
-3.08
-3.94
-4.82
-5.68
-6.48
-7.22
-7.87
-8.40
-8.76
-8.88
-8.69
-8.15
-7.29
-6.22
-5.05
-3.89
-2.73
-1.60
-0.47
0.58
1.45
2.08
2.47
2.73
2.97
3.25
3.47
3.45
2.96
1.92
0.42
-1.21
-2.60
-3.39
-3.44
-2.84
-1.85
-0.80
0.09
0.71
1.09
1.33
1.51
1.66
1.75
1.73
1.55
1.17
0.63
0.04
-0.45
-0.68
-0.53
0.02
0.88
1.96
3.16
4.41
5.65
6.79
7.77
8.53
9.11
9.61
10.21
10.99
11.91
12.81
13.44
13.62
13.29
12.52
11.51
10.43
9.43
8.60
7.94
7.41
6.92
6.40
5.75
4.97
4.08
3.14
2.24
1.44
0.75
0.13
-0.52
-1.29
-2.18
-3.14
-4.00
-4.58
-4.71
-4.31
-3.42
-2.19
-0.80
0.52
1.63
2.46
3.00
3.30
3.42
3.40
3.29
3.11
2.89
2.61
2.23
1.69
0.87
-0.28
-1.78
-3.56
-5.50
-7.43
-9.24
-10.82
-12.12
-13.08
-13.63
-13.82
-13.74
-13.54
-13.40
-13.46
-13.74
-14.17
-14.64
-14.98
-15.12
-14.99
-14.57
-13.83
-12.78
-11.44
-9.89
-8.19
-6.38
-4.46
-2.46
-0.48
1.27
2.56
3.21
3.20
2.71
1.99
1.31
0.79
0.46
0.27
0.17
0.17
0.25
0.35
0.38
0.25
-0.05
-0.41
-0.67
-0.73
-0.65
-0.62
-0.91
-1.72
-3.13
-4.98
-6.98
-8.78
-10.10
-10.79
-10.83
-10.30
-9.33
-8.04
-6.54
-4.94
-3.38
-2.05
-1.08
-0.53
-0.32
-0.27
-0.19
0.09
0.64
1.47
2.52
3.72
4.93
6.02
6.88
7.43
7.76
8.04
8.43
9.02
9.74
10.44
10.96
11.24
11.32
11.29
11.13
10.72
9.96
8.85
7.55
6.34
5.48
5.08
5.08
5.28
5.52
5.74
6.02
6.44
7.03
7.63
8.05
8.11
7.74
7.07
6.32
5.66
5.21
4.98
4.87
4.75
4.52
4.11
3.55
2.94
2.44
2.19
2.24
2.54
2.91
3.14
3.08
2.69
2.05
1.30
0.60
0.09
-0.16
-0.11
0.16
0.37
0.14
-0.94
-3.02
-5.93
-9.13
-11.91
-13.66
-14.10
-13.35
-11.74
-9.66
-7.32
-4.83
-2.22
0.40
2.83
4.81
6.19
7.01
7.45
7.80
8.30
9.03
9.91
10.75
11.35
11.54
11.22
10.40
9.17
7.72
6.28
5.07
4.15
3.46
2.75
1.74
0.26
-1.66
-3.75
-5.59
-6.84
-7.38
-7.26
-6.67
-5.82
-4.87
-3.85
-2.79
-1.71
-0.63
0.39
1.30
2.09
2.77
3.35
3.80
4.09
4.18
4.15
4.10
4.15
4.35
4.61
4.76
4.65
4.23
3.65
3.12
2.79
2.65
2.47
1.98
0.96
-0.55
-2.35
-4.13
-5.65
-6.86
-7.81
-8.63
-9.35
-9.88
-10.06
-9.69
-8.67
-7.04
-5.01
-2.85
-0.85
0.76
1.86
2.44
2.59
2.46
2.19
1.88
1.59
1.33
1.09
0.82
0.56
0.37
0.33
0.52
0.92
1.43
1.92
2.25
2.42
2.52
2.73
3.21
4.03
5.14
6.35
7.44
8.21
8.55
8.48
8.18
7.95
8.12
9.00
10.77
13.45
16.89
20.84
25.03
29.20
33.18
36.84
40.10
42.89
45.20
47.06
48.53
49.78
51.02
52.39
54.00
55.80
57.61
59.15
60.15
60.35
59.61
57.88
55.18
51.61
47.30
42.36
36.93
31.12
25.10
19.10
13.41
8.37
4.28
1.33
-0.40
-1.00
-0.55
0.90
3.43
7.22
12.44
19.10
26.93
35.46
44.10
52.38
60.05
67.06
73.50
79.37
84.57
88.87
92.06
93.97
94.45
93.26
89.94
83.86
74.54
61.89
46.40
29.07
11.07
-6.57
-23.40
-39.51
-55.38
-71.57
-88.38
-105.53
-122.29
-137.60
-150.49
-160.44
-167.53
-172.35
-175.62
-177.87
-179.07
-178.79
-176.39
-171.41
-163.74
-153.60
-141.29
-127.09
-111.21
-93.94
-75.83
-57.76
-40.74
-25.50
-12.17
-0.06
12.22
26.36
43.69
64.77
89.12
115.35
141.53
165.55
185.40
199.38
206.19
205.28
197.15
183.33
165.78
146.11
124.66
100.41
71.67
37.25
-2.54
-45.41
-87.35
-123.38
-148.71
-159.92
-156.09
-139.26
-114.22
-87.25
-64.20
-48.90
-42.28
-43.04
-49.03
-58.83
-72.35
-90.67
-115.12
-146.59
-184.84
-228.34
-274.30
-318.95
-358.11
-388.06
-406.39
-412.18
-405.87
-388.80
-362.96
-330.86
-295.54
-260.17
-227.34
-198.09
-171.56
-145.40
-116.92
-84.26
-46.98
-5.98
36.98
79.64
119.44
153.74
180.19
197.40
205.56
206.48
203.00
197.96
193.36
190.06
188.07
187.11
187.09
188.18
190.52
194.07
198.48
203.35
208.43
213.74
219.50
225.95
233.16
241.00
249.30
258.06
267.57
278.45
291.38
306.79
324.65
344.40
364.99
385.16
403.42
418.20
427.84
430.78
425.99
413.36
393.99
369.94
343.75
317.46
292.06
267.14
241.14
211.93
177.35
135.54
85.01
24.86
-44.60
-121.06
-199.84
-274.37
-337.89
-385.53
-416.00
-431.75
-437.52
-438.04
-436.14
-432.14
-424.78
-412.82
-396.23
-376.34
-354.93
-333.16
-311.13
-288.32
-264.58
-240.90
-219.27
-201.86
-189.71
-181.90
-175.51
-166.62
-151.65
-128.53
-97.25
-59.72
-19.26
20.11
54.35
80.11
95.61
101.19
99.49
94.67
91.04
91.47
96.35
103.57
109.57
110.97
105.93
94.86
80.06
64.78
52.09
44.10
41.71
44.65
51.72
61.03
70.31
77.20
79.77
76.95
68.94
57.16
43.80
31.20
21.04
13.95
9.47
6.35
3.14
-1.31
-7.33
-14.44
-21.41
-26.80
-29.42
-28.76
-25.11
-19.34
-12.60
-5.97
-0.24
4.10
6.86
8.06
7.83
6.53
4.65
2.78
1.41
0.78
0.80
1.08
1.11
0.45
-1.08
-3.40
-6.26
-9.35
-12.42
-15.38
-18.20
-20.91
-23.60
-26.39
-29.41
-32.88
-36.93
-41.53
-46.42
-51.05
-54.76
-56.95
-57.23
-55.52
-51.96
-46.89
-40.69
-33.94
-27.41
-22.16
-19.37
-19.96
-24.15
-31.18
-39.45
-47.06
-52.54
-55.50
-56.67
-57.55
-59.61
-63.59
-69.13
-75.09
-80.08
-83.13
-83.98
-82.97
-80.58
-77.25
-73.48
-70.23
-69.11
-71.63
-78.08
-86.76
-94.39
-97.79
-95.89
-90.82
-86.83
-87.88
-94.78
-104.37
-111.01
-109.88
-99.87
-84.39
-69.41
-60.15
-58.31
-61.57
-65.36
-65.56
-60.42
-50.91
-39.44
-28.15
-17.88
-8.35
0.85
9.26
15.55
18.42
17.84
15.83
16.18
23.05
39.13
64.29
95.67
129.00
160.44
188.04
211.94
233.45
253.46
271.38
285.33
293.20
294.15
289.31
281.50
273.99
269.13
267.51
267.97
268.24
265.85
258.91
246.66
229.65
209.57
188.56
168.42
150.06
133.41
117.92
103.23
89.74
78.52
70.67
66.50
65.03
64.16
61.29
54.39
42.76
27.30
10.15
-6.13
-19.46
-28.84
-34.60
-37.95
-40.31
-42.62
-44.96
-46.75
-47.27
-46.30
-44.41
-42.75
-42.88
-46.67
-56.46
-75.07
-104.98
-146.88
-198.29
-253.27
-304.04
-343.67
-368.91
-381.14
-385.22
-386.65
-388.74
-391.34
-391.55
-385.94
-372.58
-352.04
-326.83
-299.98
-273.74
-248.93
-225.23
-201.96
-178.86
-156.55
-136.28
-119.20
-105.65
-94.90
-85.40
-75.69
-65.19
-54.57
-45.40
-39.29
-37.18
-38.67
-42.26
-45.90
-47.84
-47.18
-44.01
-39.13
-33.43
-27.47
-21.18
-14.13
-5.78
4.03
15.00
26.30
36.98
46.15
53.33
58.51
62.02
64.42
66.18
67.58
68.57
68.95
68.53
67.28
65.41
63.25
61.04
58.86
56.56
53.94
50.87
47.35
43.42
39.11
34.35
29.01
23.06
16.59
9.75
2.66
-4.70
-12.43
-20.55
-28.75
-36.34
-42.36
-45.83
-46.04
-42.78
-36.23
-26.85
-15.23
-2.02
12.06
26.13
39.25
50.58
59.59
66.21
70.80
73.93
76.13
77.78
79.01
79.87
80.41
80.76
81.06
81.38
81.68
81.77
81.49
80.71
79.38
77.49
75.04
72.01
68.43
64.36
59.90
55.10
49.97
44.44
38.50
32.29
26.22
20.85
16.81
14.62
14.54
16.59
20.60
26.27
33.26
41.11
49.26
56.99
63.59
68.49
71.47
72.69
72.59
71.68
70.30
68.57
66.41
63.73
60.64
57.48
54.72
52.64
51.21
49.91
47.97
44.74
39.94
33.81
27.06
20.45
14.47
9.31
4.98
1.49
-1.31
-3.94
-7.34
-12.60
-20.17
-29.25
-37.67
-42.73
-42.47
-36.71
-27.16
-16.51
-7.04
0.36
6.18
11.51
16.99
22.36
26.68
29.11
29.50
28.46
27.00
26.01
25.83
26.21
26.56
26.31
25.16
23.12
20.48
17.58
14.60
11.48
7.98
3.84
-1.06
-6.52
-12.23
-17.88
-23.36
-28.88
-34.83
-41.52
-48.96
-56.72
-63.98
-69.69
-72.84
-72.53
-68.19
-59.63
-47.12
-31.31
-13.26
5.75
24.38
41.45
56.03
67.57
75.88
81.10
83.64
84.09
83.06
81.09
78.54
75.56
72.10
68.04
63.25
57.74
51.67
45.36
39.10
33.02
26.88
20.17
12.30
2.90
-7.95
-19.74
-31.79
-43.61
-55.09
-66.51
-78.19
-90.14
-101.76
-111.98
-119.59
-123.73
-124.39
-122.48
-119.70
-117.97
-118.81
-122.83
-129.38
-136.74
-142.42
-143.55
-137.40
-121.78
-95.65
-59.75
-16.87
28.47
71.13
106.79
133.24
150.68
160.91
165.63
165.16
158.00
142.02
116.36
82.96
46.77
14.29
-8.86
-20.00
-20.30
-13.98
-6.29
-1.36
-0.82
-3.59
-6.81
-7.07
-1.62
10.98
30.50
55.28
82.62
109.51
133.35
152.46
166.35
175.70
182.10
187.56
193.98
202.43
212.29
220.66
222.65
212.79
187.63
148.14
100.47
54.24
18.70
-1.12
-6.19
-2.31
3.23
4.85
-0.05
-12.15
-32.09
-61.37
-101.31
-150.89
-205.19
-255.95
-294.40
-314.64
-315.65
-301.01
-276.62
-248.00
-218.52
-189.24
-159.99
-130.76
-102.51
-77.15
-56.86
-43.20
-36.45
-35.39
-37.89
-41.60
-44.72
-46.41
-46.64
-45.81
-44.30
-42.19
-39.32
-35.53
-30.84
-25.59
-20.31
-15.61
-11.95
-9.61
-8.68
-9.24
-11.39
-15.31
-21.05
-28.24
-35.93
-42.59
-46.37
-45.64
-39.42
-27.79
-11.71
7.25
27.38
47.21
65.64
81.83
95.07
104.71
110.32
111.84
109.80
105.22
99.42
93.59
88.53
84.47
81.15
78.05
74.70
70.84
66.50
61.88
57.19
52.53
47.74
42.54
36.52
29.29
20.63
10.47
-0.88
-12.71
-23.83
-32.69
-37.74
-37.80
-32.46
-22.21
-8.27
7.86
24.71
41.16
56.36
69.66
80.44
88.10
92.24
92.85
90.43
85.92
80.45
74.99
70.13
65.96
62.23
58.55
54.64
50.42
45.97
41.42
36.85
32.21
27.38
22.15
16.27
9.43
1.33
-8.25
-19.23
-31.01
-42.40
-51.76
-57.36
-57.84
-52.69
-42.32
-27.94
-11.20
6.25
23.07
38.24
51.01
60.69
66.69
68.58
66.32
60.43
51.88
41.97
31.90
22.52
14.15
6.67
-0.27
-7.00
-13.71
-20.35
-26.84
-33.18
-39.56
-46.29
-53.75
-62.23
-71.96
-83.05
-95.56
-109.31
-123.80
-137.96
-150.17
-158.60
-161.63
-158.42
-149.22
-135.37
-118.83
-101.73
-85.82
-72.29
-61.78
-54.62
-50.99
-50.93
-54.25
-60.31
-67.91
-75.33
-80.65
-82.04
-78.07
-67.87
-51.13
-28.02
0.86
34.48
71.33
109.64
147.52
183.27
215.63
243.88
267.68
286.85
301.19
310.35
314.07
312.40
305.93
295.78
283.43
270.25
257.23
244.86
233.21
222.13
211.48
201.11
190.74
179.74
167.13
151.85
133.15
111.10
86.76
62.09
39.39
20.68
7.12
-1.25
-5.43
-6.91
-7.28
-7.72
-8.87
-11.00
-14.19
-18.56
-24.36
-31.76
-40.73
-50.80
-61.07
-70.39
-77.77
-82.70
-85.37
-86.64
-87.69
-89.53
-92.60
-96.60
-100.67
-103.73
-104.81
-103.43
-99.71
-94.32
-88.36
-83.07
-79.51
-78.20
-78.75
-79.75
-79.10
-74.82
-65.95
-53.22
-38.94
-26.08
-17.08
-12.79
-12.32
-13.64
-14.69
-14.28
-12.38
-9.67
-6.86
-4.21
-1.55
1.39
4.53
7.33
9.07
9.27
7.96
5.77
3.58
2.17
2.04
3.28
5.82
9.54
14.41
20.38
27.27
34.66
41.88
48.18
52.90
55.62
56.22
54.89
51.97
47.95
43.23
38.09
32.68
26.90
20.59
13.57
5.72
-2.89
-12.04
-21.43
-30.72
-39.58
-47.72
-54.88
-60.91
-65.74
-69.50
-72.42
-74.84
-77.13
-79.67
-82.78
-86.72
-91.61
-97.34
-103.34
-108.60
-111.79
-111.58
-107.07
-98.19
-85.68
-70.95
-55.61
-41.09
-28.34
-17.82
-9.64
-3.68
0.22
2.31
2.93
2.54
1.60
0.54
-0.39
-1.15
-1.86
-2.74
-3.99
-5.74
-8.06
-10.89
-14.11
-17.52
-20.90
-24.03
-26.83
-29.36
-31.84
-34.56
-37.73
-41.44
-45.48
-49.38
-52.50
-54.10
-53.52
-50.32
-44.37
-35.88
-25.42
-13.79
-1.95
9.24
19.14
27.45
34.15
39.38
43.33
46.10
47.74
48.28
47.84
46.66
45.06
43.38
41.89
40.74
39.97
39.46
39.02
38.41
37.43
36.02
34.25
32.24
30.09
27.80
25.23
22.16
18.35
13.61
7.75
0.72
-7.36
-15.95
-24.08
-30.42
-33.65
-32.85
-27.77
-18.91
-7.26
6.07
20.11
34.12
47.47
59.45
69.24
76.01
79.25
78.94
75.73
70.72
65.15
60.08
56.10
53.28
51.35
49.88
48.52
47.10
45.64
44.13
42.55
40.79
38.65
35.96
32.65
28.72
24.24
19.33
14.08
8.57
2.78
-3.33
-9.76
-16.25
-22.18
-26.59
-28.38
-26.67
-21.18
-12.38
-1.38
10.41
21.74
31.77
40.12
46.77
51.82
55.41
57.83
59.53
61.06
62.72
64.12
63.99
60.43
51.72
37.30
18.29
-2.68
-22.37
-38.19
-49.06
-55.51
-59.10
-61.50
-63.76
-66.14
-68.44
-70.50
-72.48
-74.92
-78.39
-83.12
-88.78
-94.43
-98.77
-100.60
-99.17
-94.37
-86.74
-77.09
-66.25
-54.89
-43.41
-32.14
-21.49
-12.01
-4.31
1.10
4.08
4.87
4.06
2.45
0.71
-0.70
-1.70
-2.40
-3.06
-3.85
-4.87
-6.07
-7.38
-8.82
-10.46
-12.42
-14.74
-17.43
-20.43
-23.75
-27.52
-32.05
-37.69
-44.69
-52.94
-61.86
-70.34
-77.07
-80.80
-80.88
-77.41
-71.25
-63.65
-55.83
-48.53
-41.94
-35.91
-30.36
-25.66
-22.67
-22.43
-25.58
-31.85
-39.89
-47.52
-52.45
-53.04
-48.81
-40.44
-29.36
-17.11
-4.72
7.44
19.71
32.81
47.63
64.78
84.18
104.81
124.90
142.52
156.55
167.51
177.84
191.21
211.12
239.42
275.00
313.54
348.44
372.70
381.27
372.84
350.43
320.27
289.31
262.27
239.57
217.13
188.35
147.31
91.64
23.82
-49.84
-121.58
-184.86
-235.88
-273.55
-298.39
-311.35
-313.26
-305.09
-288.62
-266.81
-243.45
-222.19
-205.40
-193.67
-185.81
-179.59
-172.61
-162.94
-149.59
-132.46
-112.32
-90.43
-68.13
-46.44
-25.74
-5.84
13.80
33.56
53.37
72.61
90.33
105.70
118.43
128.99
138.36
147.64
157.45
167.50
176.71
183.64
187.20
187.20
184.47
180.36
176.03
171.77
166.85
160.03
150.20
137.13
121.45
104.30
86.45
67.92
48.11
26.43
3.20
-19.94
-40.39
-55.61
-64.30
-67.11
-66.41
-65.30
-66.41
-70.88
-78.27
-86.96
-94.89
-100.19
-101.52
-98.29
-90.87
-80.66
-70.07
-61.98
-58.75
-61.38
-68.80
-78.16
-85.71
-88.07
-83.34
-71.50
-54.25
-34.20
-14.02
4.17
19.07
30.10
37.09
40.14
39.57
36.04
30.68
24.92
20.12
17.15
15.94
15.66
15.03
13.09
9.54
4.92
0.25
-3.40
-5.42
-5.69
-4.53
-2.32
0.71
4.50
9.20
14.87
21.46
28.77
36.51
44.34
51.96
59.06
65.29
70.25
73.37
74.05
71.66
65.80
56.46
44.25
30.34
16.22
3.19
-8.06
-17.71
-26.66
-36.06
-46.73
-58.80
-71.68
-84.39
-95.97
-105.83
-113.80
-120.01
-124.69
-128.01
-130.09
-130.99
-130.85
-129.89
-128.50
-127.14
-126.37
-126.63
-128.01
-130.10
-131.95
-132.42
-130.59
-126.24
-119.99
-113.12
-107.23
-103.73
-103.61
-107.08
-113.59
-121.88
-130.40
-137.68
-142.95
-146.41
-149.14
-152.59
-158.04
-166.11
-176.78
-189.49
-203.62
-218.39
-232.76
-245.00
-252.63
-252.73
-242.70
-221.34
-189.80
-151.78
-112.80
-78.64
-53.35
-38.00
-30.49
-26.78
-22.66
-15.39
-4.42
8.62
20.45
26.78
23.10
5.95
-25.50
-68.19
-115.25
-157.68
-187.37
-199.86
-195.31
-177.30
-150.40
-117.97
-81.65
-42.33
-1.45
38.55
75.28
107.80
137.23
165.95
195.80
226.66
256.22
281.16
298.68
307.72
309.05
304.76
297.32
288.87
280.56
272.10
261.62
246.33
223.80
193.43
157.37
119.85
85.46
57.02
34.57
15.97
-1.35
-18.66
-35.36
-49.54
-59.32
-63.73
-62.93
-57.58
-48.22
-34.82
-16.90
6.03
34.04
66.38
101.26
136.00
167.36
192.35
209.16
217.76
219.75
217.46
212.68
205.82
195.98
181.80
162.73
139.59
114.44
89.48
66.09
44.32
23.35
2.33
-18.87
-39.41
-57.99
-73.44
-85.23
-93.38
-98.08
-99.23
-96.47
-89.62
-79.27
-67.10
-55.72
-47.64
-44.51
-46.55
-52.82
-61.99
-73.24
-86.62
-102.63
-121.17
-140.61
-157.73
-168.64
-170.36
-162.32
-146.81
-128.22
-111.42
-100.02
-95.34
-96.53
-101.72
-109.44
-119.43
-132.62
-150.27
-172.79
-199.08
-226.72
-252.89
-275.21
-292.00
-301.88
-303.06
-293.26
-270.64
-235.35
-190.60
-142.60
-98.95
-66.41
-48.84
-46.50
-56.44
-73.74
-93.09
-109.98
-121.46
-126.61
-126.29
-122.30
-116.13
-108.07
-97.25
-82.64
-64.15
-43.08
-21.50
-0.92
18.63
38.51
60.27
84.40
109.74
134.23
156.47
177.01
198.26
223.07
252.61
285.00
315.57
338.81
350.90
351.46
343.61
332.44
322.55
316.13
312.65
309.93
305.95
300.30
294.25
289.84
288.38
289.52
291.45
291.83
288.90
282.13
272.07
259.60
245.20
228.77
210.03
189.06
166.67
144.22
122.95
103.50
85.63
68.59
51.69
34.68
17.82
1.50
-14.13
-29.29
-44.25
-59.01
-73.11
-85.80
-96.66
-106.04
-115.19
-125.83
-139.34
-155.95
-174.50
-192.79
-208.45
-219.83
-226.44
-228.87
-228.31
-226.01
-222.85
-219.15
-214.68
-208.64
-199.68
-186.09
-166.35
-139.86
-107.69
-72.89
-40.01
-13.86
2.09
6.85
2.14
-8.40
-20.62
-31.30
-38.84
-43.11
-44.80
-44.60
-42.89
-39.85
-35.81
-31.40
-27.39
-24.22
-21.61
-18.55
-13.65
-5.80
5.35
19.36
35.39
52.70
71.00
90.35
110.62
131.10
150.26
165.94
175.67
177.16
168.94
151.04
125.89
98.37
74.95
61.46
60.45
69.38
81.06
86.18
76.93
49.83
6.55
-47.51
-105.78
-162.49
-213.45
-255.48
-285.76
-301.93
-302.84
-289.53
-265.21
-234.22
-200.03
-163.78
-124.32
-79.76
-29.91
22.10
70.12
107.32
129.51
137.44
136.70
135.13
139.12
150.98
168.56
187.18
202.48
212.43
217.55
219.62
220.11
219.21
216.14
210.07
200.87
189.47
177.13
164.79
152.51
139.53
124.89
108.22
90.42
73.73
61.21
55.34
56.73
63.26
70.37
72.57
65.48
47.65
21.26
-8.62
-35.91
-55.73
-66.09
-68.44
-67.00
-67.17
-73.56
-88.52
-111.26
-138.06
-163.27
-180.87
-186.23
-177.21
-154.60
-121.60
-82.74
-42.66
-5.36
26.22
50.09
65.10
71.03
68.65
59.65
46.21
30.37
13.53
-3.49
-20.12
-35.64
-49.25
-60.32
-68.80
-75.14
-79.75
-82.54
-82.75
-79.50
-72.67
-63.58
-55.01
-50.48
-53.05
-64.32
-83.82
-108.98
-135.60
-158.74
-173.93
-178.41
-171.92
-156.79
-136.95
-116.58
-98.91
-85.71
-77.32
-73.11
-71.85
-71.88
-71.34
-68.70
-63.38
-56.16
-48.98
-44.03
-42.64
-44.46
-47.67
-49.91
-49.50
-46.19
-41.04
-35.56
-30.91
-27.37
-24.59
-22.11
-19.88
-18.29
-17.92
-19.08
-21.56
-24.75
-27.97
-30.84
-33.30
-35.54
-37.58
-39.01
-39.04
-36.78
-31.65
-23.58
-12.95
-0.32
13.76
28.86
44.37
59.37
72.60
82.87
89.72
93.70
96.29
99.27
103.86
110.25
117.60
124.61
130.24
134.20
136.87
138.94
140.82
142.35
142.88
141.60
138.09
132.61
126.12
119.89
114.97
111.66
109.35
106.73
102.47
95.94
87.65
79.14
72.42
69.15
69.98
74.37
80.91
87.97
94.32
99.42
103.35
106.44
109.00
111.19
112.92
114.03
114.28
113.32
110.74
106.20
99.60
91.25
81.80
72.00
62.26
52.45
41.82
29.32
14.09
-4.21
-25.12
-47.54
-69.94
-90.72
-108.57
-122.84
-133.83
-142.93
-152.35
-164.35
-180.33
-200.02
-221.37
-241.21
-256.48
-265.40
-267.93
-265.42
-259.72
-252.20
-243.44
-233.35
-221.72
-208.56
-194.14
-178.80
-162.81
-146.42
-130.15
-114.93
-102.00
-92.43
-86.61
-83.84
-82.40
-79.98
-74.33
-63.98
-48.49
-28.61
-5.85
18.01
41.45
63.57
84.12
103.30
121.36
138.22
153.25
165.34
173.17
175.67
172.25
163.12
149.34
132.88
116.37
102.45
92.93
87.98
85.90
83.71
78.32
67.79
52.01
32.61
12.11
-7.02
-22.96
-34.69
-41.80
-44.31
-42.77
-38.41
-33.03
-28.60
-26.62
-27.63
-31.15
-35.93
-40.52
-43.78
-45.16
-44.80
-43.45
-41.95
-40.82
-39.96
-38.59
-35.57
-29.94
-21.23
-9.57
4.50
20.38
37.54
55.36
72.74
87.94
98.74
103.01
99.47
88.19
70.59
49.14
26.82
6.62
-8.77
-17.42
-18.32
-11.85
0.31
15.44
30.51
43.01
51.59
56.16
57.63
57.44
57.17
58.30
62.04
69.28
80.29
94.59
110.86
127.16
141.56
152.86
161.21
168.05
175.48
185.17
197.29
210.20
220.88
226.13
223.79
213.52
196.64
175.36
151.72
126.85
100.85
73.13
42.93
9.59
-27.39
-68.23
-112.66
-159.34
-205.61
-247.62
-281.27
-303.54
-313.54
-312.75
-304.25
-291.20
-275.58
-257.79
-237.20
-213.32
-186.75
-159.45
-133.99
-112.50
-95.64
-82.45
-70.99
-59.51
-47.36
-35.22
-24.28
-15.12
-7.00
1.94
13.58
28.52
45.48
61.65
73.76
79.27
76.98
67.00
50.41
28.87
4.69
-19.32
-40.27
-56.08
-66.36
-72.63
-77.65
-84.11
-93.49
-105.45
-118.23
-129.62
-137.80
-141.85
-141.65
-137.50
-129.80
-118.97
-105.63
-90.83
-76.12
-63.45
-54.99
-52.68
-57.62
-69.48
-86.33
-104.97
-121.88
-134.13
-140.15
-139.68
-133.24
-121.39
-104.42
-82.61
-56.83
-28.97
-1.57
23.19
44.78
64.92
87.05
114.55
148.67
187.02
223.71
251.49
264.78
262.34
248.04
229.09
212.80
203.43
200.93
202.14
203.24
202.09
198.97
195.66
193.63
192.90
192.14
189.92
185.99
181.56
178.47
177.79
178.98
179.96
178.23
172.09
161.36
147.20
131.22
114.45
96.79
77.22
54.56
28.55
0.44
-27.18
-51.25
-69.35
-80.49
-85.39
-86.10
-85.35
-85.70
-89.06
-96.20
-106.65
-118.46
-128.32
-132.05
-125.54
-106.11
-73.73
-31.83
12.99
52.30
77.94
84.56
71.37
42.78
7.27
-25.14
-46.04
-51.26
-41.87
-23.48
-3.93
9.57
12.77
5.41
-9.22
-26.01
-40.02
-48.03
-49.28
-45.03
-37.65
-29.64
-22.88
-18.42
-16.42
-16.46
-17.60
-18.50
-17.66
-13.89
-6.93
1.95
9.95
13.56
10.02
-1.30
-18.30
-37.01
-53.40
-65.49
-74.25
-83.03
-95.45
-113.21
-134.89
-156.51
-173.48
-182.65
-183.46
-177.61
-167.68
-155.68
-142.28
-127.15
-109.84
-90.61
-70.60
-51.37
-34.12
-19.16
-5.96
6.26
17.83
28.26
36.29
40.58
40.41
36.18
29.41
22.17
16.38
13.16
12.62
14.03
16.29
18.38
19.73
20.23
20.15
19.87
19.66
19.57
19.48
19.07
18.06
16.29
13.91
11.40
9.54
9.16
10.84
14.69
20.23
26.67
33.15
39.03
44.06
48.28
51.79
54.57
56.47
57.32
57.15
56.19
54.79
53.16
51.29
49.00
46.19
43.15
40.50
38.96
38.99
40.39
42.39
43.89
43.94
42.11
38.70
34.65
31.19
29.47
30.20
33.42
38.57
44.74
51.09
57.17
63.13
69.60
77.42
87.39
99.97
115.18
132.47
150.60
167.71
181.61
190.31
192.58
188.27
178.31
164.21
147.51
129.30
110.12
90.13
69.42
48.16
26.61
4.94
-16.78
-38.49
-59.97
-80.62
-99.47
-115.35
-127.27
-134.80
-138.16
-138.25
-136.16
-132.86
-128.78
-123.88
-117.93
-110.89
-103.20
-95.70
-89.32
-84.56
-81.34
-79.07
-77.09
-75.02
-72.90
-70.99
-69.41
-67.89
-65.85
-62.79
-58.59
-53.68
-48.80
-44.65
-41.61
-39.63
-38.55
-38.31
-39.03
-40.85
-43.63
-46.77
-49.30
-50.26
-49.16
-46.14
-41.96
-37.58
-33.76
-30.89
-28.95
-27.78
-27.29
-27.56
-28.76
-31.01
-34.16
-37.76
-41.12
-43.54
-44.51
-43.95
-42.08
-39.38
-36.27
-33.02
-29.68
-26.21
-22.64
-19.10
-15.83
-12.99
-10.59
-8.54
-6.73
-5.06
-3.39
-1.31
1.95
7.32
15.59
26.99
40.98
56.33
71.58
85.39
97.03
106.59
114.96
123.54
133.78
146.56
161.72
178.11
194.01
207.92
219.20
228.29
236.33
244.41
252.87
260.94
266.83
268.18
262.65
248.52
225.24
193.65
155.88
114.71
72.63
31.08
-9.78
-50.46
-91.19
-131.03
-167.64
-197.85
-218.64
-228.15
-225.98
-212.99
-190.71
-160.98
-126.04
-88.95
-53.76
-25.18
-7.57
-3.57
-13.42
-34.88
-64.09
-96.71
-128.90
-157.83
-181.76
-199.94
-212.40
-219.82
-223.24
-223.80
-222.67
-221.13
-220.71
-223.31
-230.80
-244.32
-263.59
-286.62
-310.12
-330.40
-344.39
-350.28
-347.75
-337.83
-322.54
-304.45
-286.23
-270.15
-257.77
-249.76
-245.97
-245.60
-247.48
-250.25
-252.52
-252.97
-250.54
-244.63
-235.12
-222.36
-206.94
-189.51
-170.59
-150.56
-129.71
-108.38
-86.98
-66.02
-46.00
-27.28
-9.99
5.95
20.79
34.75
47.92
60.20
71.29
80.90
88.85
95.27
100.55
105.36
110.32
116.04
122.92
131.13
140.67
151.44
163.35
176.36
190.66
206.58
224.52
244.55
266.13
287.82
307.59
323.35
333.66
338.22
337.89
334.24
328.90
322.99
317.01
310.90
304.30
296.64
287.09
274.62
258.23
237.32
212.11
183.66
153.61
123.60
94.86
67.92
42.95
19.98
-0.76
-19.01
-34.72
-48.29
-60.60
-72.57
-84.62
-96.31
-106.49
-113.87
-117.68
-118.06
-115.90
-112.22
-107.66
-102.27
-95.69
-87.47
-77.38
-65.43
-51.91
-37.43
-23.06
-10.40
-1.26
2.91
1.72
-3.86
-11.54
-18.51
-22.29
-21.51
-16.11
-7.09
3.94
15.41
26.12
35.36
42.88
48.56
52.26
53.62
52.20
47.64
39.86
28.98
15.26
-1.01
-19.14
-37.60
-53.81
-64.54
-66.96
-59.75
-43.69
-21.30
4.19
30.26
55.86
81.20
106.97
133.42
160.03
185.79
209.81
231.60
250.74
266.24
276.17
277.93
269.31
249.59
220.24
184.82
148.01
114.20
86.47
66.00
52.49
44.76
41.42
41.32
43.57
47.46
52.30
57.29
61.55
64.15
64.25
61.14
54.34
43.55
28.68
9.99
-11.86
-35.56
-59.29
-80.80
-97.97
-109.29
-114.32
-113.83
-109.53
-103.50
-97.53
-92.53
-88.36
-83.96
-77.84
-68.67
-55.89
-39.90
-21.94
-3.69
13.36
28.44
41.67
53.98
66.63
80.77
97.21
116.24
137.60
160.43
183.18
203.71
219.61
228.88
230.50
224.77
213.22
197.89
180.57
162.08
142.19
119.97
94.53
65.63
34.03
1.25
-30.93
-60.86
-87.32
-109.34
-125.97
-136.26
-139.49
-135.83
-126.68
-114.67
-102.99
-94.46
-90.66
-91.58
-96.10
-102.82
-110.78
-119.69
-129.68
-140.48
-151.11
-160.08
-166.05
-168.47
-167.83
-165.31
-161.96
-158.18
-153.58
-147.52
-139.73
-130.72
-121.46
-112.66
-104.04
-94.08
-80.49
-61.08
-34.75
-2.00
35.09
73.33
109.15
139.21
160.87
172.47
173.69
165.57
150.53
131.81
112.66
95.41
80.93
68.64
57.27
45.60
33.17
20.33
7.93
-3.19
-12.54
-20.02
-26.01
-31.21
-36.68
-43.58
-52.88
-64.91
-79.18
-94.51
-109.56
-123.34
-135.53
-146.39
-156.25
-165.15
-172.68
-178.22
-181.14
-180.96
-177.30
-169.62
-157.25
-139.55
-116.36
-88.36
-57.16
-25.02
5.73
33.22
56.34
74.79
88.80
98.92
105.73
109.80
111.64
111.76
110.65
108.74
106.39
103.85
101.27
98.74
96.41
94.42
92.90
91.90
91.27
90.68
89.57
87.31
83.40
77.60
70.02
61.08
51.36
41.44
31.77
22.82
15.00
8.87
4.99
3.84
5.68
10.48
17.88
27.24
37.66
48.01
57.05
63.59
66.87
66.73
63.77
59.08
53.87
49.08
45.23
42.51
41.02
40.93
42.41
45.43
49.50
53.72
56.98
58.51
58.24
56.82
55.19
53.91
52.72
50.54
46.07
38.58
28.41
16.88
5.54
-4.64
-13.77
-22.78
-32.54
-43.11
-53.32
-61.15
-64.61
-62.49
-54.77
-42.46
-27.05
-10.03
7.27
23.76
38.52
50.82
60.32
67.16
71.93
75.42
78.36
81.15
83.82
86.12
87.58
87.65
85.87
82.02
76.37
69.74
63.34
58.27
54.97
52.94
50.94
47.47
41.41
32.24
20.06
5.44
-10.72
-27.13
-42.12
-53.85
-60.87
-62.67
-59.87
-54.02
-47.09
-40.94
-37.03
-36.31
-39.19
-45.49
-54.33
-64.27
-73.72
-81.48
-87.13
-90.98
-93.65
-95.47
-96.10
-94.52
-89.42
-79.75
-65.22
-46.51
-25.17
-3.32
16.97
34.20
47.73
57.81
65.21
70.68
74.59
76.80
76.78
73.87
67.49
57.28
43.26
25.98
6.63
-12.85
-30.10
-42.76
-49.17
-48.81
-42.46
-32.00
-19.83
-8.26
1.03
7.19
10.21
10.62
9.26
7.03
4.72
2.96
2.14
2.34
3.29
4.38
4.82
3.88
1.17
-3.25
-8.94
-15.29
-21.87
-28.63
-35.89
-44.18
-53.89
-65.03
-77.09
-89.04
-99.54
-107.25
-111.15
-110.89
-106.86
-100.12
-92.06
-84.01
-76.92
-71.16
-66.74
-63.49
-61.27
-60.05
-59.80
-60.34
-61.27
-62.04
-62.04
-60.67
-57.34
-51.42
-42.32
-29.69
-13.63
5.01
24.71
43.50
59.35
70.74
76.77
77.34
72.93
64.38
52.66
38.70
23.42
7.79
-7.12
-20.15
-30.18
-36.30
-38.14
-35.89
-30.37
-22.68
-13.93
-5.02
3.43
10.97
17.16
21.48
23.51
23.03
20.27
15.84
10.64
5.56
1.26
-1.99
-4.32
-6.09
-7.74
-9.65
-12.06
-15.08
-18.78
-23.18
-28.31
-34.16
-40.76
-48.05
-55.98
-64.34
-72.81
-80.82
-87.52
-91.80
-92.42
-88.26
-78.59
-63.36
-43.29
-19.83
5.13
29.64
52.15
71.79
88.40
102.29
113.77
122.82
128.94
131.56
130.33
125.59
118.25
109.36
99.82
90.29
81.56
74.79
71.37
72.16
76.77
83.28
88.99
91.74
90.93
87.70
83.90
80.68
77.56
72.80
64.55
52.36
37.80
23.79
13.20
7.60
6.68
8.75
11.77
14.24
15.63
16.25
16.59
16.86
16.82
15.90
13.59
9.80
4.92
-0.34
-5.21
-9.28
-12.53
-15.35
-18.29
-21.72
-25.67
-29.83
-33.60
-36.50
-38.31
-39.13
-39.36
-39.46
-39.82
-40.62
-41.86
-43.45
-45.23
-47.03
-48.67
-49.91
-50.53
-50.28
-48.99
-46.57
-43.04
-38.53
-33.21
-27.36
-21.33
-15.57
-10.51
-6.50
-3.65
-1.84
-0.78
-0.15
0.31
0.70
1.07
1.46
1.94
2.55
3.26
3.83
3.90
3.05
1.02
-2.20
-6.38
-11.14
-16.11
-21.03
-25.77
-30.34
-34.76
-38.93
-42.67
-45.67
-47.65
-48.44
-48.08
-46.82
-45.02
-43.01
-41.04
-39.14
-37.28
-35.42
-33.66
-32.28
-31.68
-32.20
-34.02
-37.03
-40.87
-45.05
-49.13
-52.80
-55.98
-58.80
-61.51
-64.44
-67.90
-72.07
-76.96
-82.34
-87.90
-93.36
-98.74
-104.43
-111.18
-119.87
-131.22
-145.45
-162.03
-179.70
-196.48
-210.08
-218.33
-219.74
-213.87
-201.50
-184.29
-164.21
-142.89
-121.28
-99.81
-78.87
-59.36
-42.78
-30.80
-24.49
-23.62
-26.49
-30.46
-32.90
-32.01
-27.26
-19.07
-8.30
4.26
17.97
31.94
44.55
53.41
55.90
50.07
35.56
13.75
-12.66
-40.62
-67.53
-91.63
-111.82
-127.22
-136.93
-140.15
-136.57
-126.73
-112.08
-94.57
-76.06
-57.82
-40.38
-23.68
-7.56
7.97
22.62
35.98
47.81
58.20
67.50
76.03
83.81
90.48
95.51
98.48
99.35
98.44
96.21
93.07
89.24
84.80
79.85
74.55
69.08
63.52
57.85
51.91
45.56
38.67
31.22
23.25
15.06
7.24
0.80
-3.06
-3.28
0.63
8.35
18.91
31.05
43.64
56.00
67.78
78.68
88.18
95.50
99.91
101.12
99.53
96.09
91.91
87.81
84.11
80.75
77.58
74.61
72.07
70.24
69.20
68.72
68.35
67.59
66.14
63.95
61.22
58.25
55.38
52.84
50.74
48.95
47.14
44.88
41.81
38.06
34.33
31.94
32.44
37.13
46.68
60.90
78.77
98.70
118.79
137.15
152.15
162.71
168.59
170.46
169.79
168.37
167.83
169.11
172.38
177.24
182.96
188.85
194.27
198.67
201.56
202.60
201.73
199.11
195.16
190.26
184.70
178.61
172.06
165.21
158.38
151.99
146.40
141.83
138.20
135.09
131.90
127.85
122.26
114.62
104.81
92.98
79.51
64.81
49.11
32.43
14.57
-4.85
-26.38
-50.50
-77.40
-106.53
-136.32
-164.32
-187.77
-204.61
-214.12
-217.24
-216.07
-212.94
-209.59
-206.82
-204.70
-203.06
-202.00
-201.88
-203.06
-205.55
-208.89
-212.27
-214.84
-216.04
-215.61
-213.64
-210.27
-205.46
-198.95
-190.28
-179.05
-165.16
-148.95
-131.17
-112.79
-94.67
-77.33
-60.91
-45.29
-30.29
-15.83
-1.99
11.08
23.22
34.33
44.43
53.54
61.72
68.98
75.26
80.52
84.79
88.18
90.89
93.11
94.94
96.32
97.16
97.38
97.12
96.70
96.57
97.02
98.07
99.36
100.33
100.38
99.14
96.50
92.58
87.59
81.66
74.89
67.28
58.94
50.08
41.06
32.30
24.26
17.34
11.81
7.74
4.98
3.17
1.77
0.20
-2.10
-5.60
-10.65
-17.53
-26.29
-36.74
-48.27
-59.94
-70.58
-79.09
-84.74
-87.29
-86.97
-84.28
-79.76
-73.90
-67.01
-59.46
-51.65
-44.08
-37.30
-31.73
-27.60
-24.97
-23.77
-23.90
-25.28
-27.84
-31.46
-36.02
-41.35
-47.31
-53.75
-60.51
-67.33
-73.76
-79.19
-83.02
-84.72
-84.05
-81.07
-76.13
-69.75
-62.56
-55.18
-48.17
-42.01
-36.97
-33.05
-29.93
-27.07
-23.95
-20.31
-16.22
-11.94
-7.56
-2.71
3.35
11.23
21.03
32.02
43.03
53.07
61.78
69.33
75.87
80.91
83.23
81.48
75.16
65.22
53.96
44.05
37.27
33.74
32.03
29.92
25.61
18.44
8.97
-1.44
-11.35
-19.92
-27.05
-33.40
-39.97
-47.72
-57.28
-68.78
-81.89
-96.00
-110.35
-124.28
-137.26
-149.07
-159.68
-169.19
-177.59
-184.65
-189.91
-192.77
-192.75
-189.68
-183.79
-175.58
-165.66
-154.65
-143.08
-131.67
-121.21
-112.51
-105.88
-100.79
-95.72
-88.69
-77.99
-63.06
-44.86
-25.73
-8.67
3.39
8.42
5.71
-3.87
-17.96
-33.11
-45.56
-52.09
-50.86
-41.80
-26.54
-7.96
10.54
25.74
35.19
37.60
33.15
23.33
10.59
-2.21
-12.57
-18.90
-20.95
-19.78
-17.35
-15.78
-16.49
-19.69
-24.37
-28.96
-32.22
-33.76
-34.16
-34.36
-35.03
-36.29
-37.91
-39.79
-42.30
-45.98
-51.04
-56.82
-61.73
-63.84
-61.73
-55.01
-44.50
-31.76
-18.41
-5.56
6.36
17.53
28.27
38.81
49.05
58.67
67.37
75.01
81.67
87.52
92.59
96.62
99.10
99.57
97.87
94.30
89.52
84.22
78.87
73.52
67.91
61.66
54.50
46.33
37.08
26.72
15.19
2.59
-10.58
-23.31
-34.20
-41.76
-44.82
-42.88
-36.22
-25.79
-12.89
1.16
15.31
28.79
41.02
51.40
59.30
64.17
65.80
64.49
61.07
56.63
52.25
48.65
46.11
44.45
43.31
42.29
41.05
39.35
37.07
34.15
30.69
26.83
22.71
18.36
13.58
8.06
1.43
-6.51
-15.62
-25.30
-34.59
-42.22
-46.93
-47.71
-44.03
-36.02
-24.36
-10.19
5.16
20.42
34.56
46.87
56.94
64.64
70.00
73.28
74.87
75.28
75.04
74.55
74.07
73.60
73.01
72.11
70.87
69.44
68.15
67.33
67.10
67.24
67.21
66.38
64.21
60.38
54.76
47.36
38.26
27.65
15.91
3.68
-8.27
-19.12
-28.17
-34.87
-38.77
-39.54
-37.12
-31.87
-24.87
-17.77
-12.41
-10.22
-11.61
-15.81
-21.08
-25.38
-27.05
-25.32
-20.47
-13.59
-6.12
0.63
5.92
9.70
12.54
15.32
18.81
23.34
28.67
34.17
39.03
42.65
44.72
45.18
43.99
41.04
36.17
29.38
20.95
11.56
2.01
-7.01
-15.08
-22.07
-27.83
-31.99
-33.85
-32.58
-27.59
-18.87
-7.11
6.40
20.26
33.21
44.49
53.76
60.99
66.31
69.86
71.80
72.35
71.84
70.66
69.22
67.81
66.54
65.38
64.18
62.76
60.97
58.63
55.53
51.46
46.27
39.91
32.58
24.64
16.59
8.85
1.69
-4.93
-11.25
-17.70
-24.60
-32.04
-39.68
-46.72
-52.01
-54.32
-52.77
-47.09
-37.81
-26.11
-13.46
-1.17
9.88
19.35
27.27
33.75
38.87
42.54
44.72
45.50
45.19
44.29
43.28
42.56
42.31
42.54
43.18
44.14
45.26
46.31
46.95
46.73
45.16
41.89
36.77
29.89
21.56
12.24
2.45
-7.29
-16.55
-25.00
-32.54
-39.22
-45.30
-51.02
-56.48
-61.47
-65.38
-67.32
-66.34
-61.82
-53.62
-42.25
-28.69
-14.20
0.11
13.37
25.09
35.06
43.14
49.19
52.91
54.03
52.42
48.36
42.54
36.01
29.97
25.30
22.44
21.22
21.08
21.36
21.53
21.37
20.86
20.11
19.13
17.84
16.11
13.85
11.10
8.01
4.91
2.04
-0.47
-2.75
-5.05
-7.68
-10.87
-14.77
-19.31
-24.23
-29.22
-33.83
-37.50
-39.63
-39.60
-36.96
-31.53
-23.63
-13.76
-2.86
8.07
18.08
26.58
33.45
38.99
43.70
47.88
51.91
55.42
57.57
57.28
53.77
47.00
37.77
27.49
17.52
9.87
5.42
4.18
5.09
6.43
6.41
3.84
-1.39
-8.37
-13.39
-12.97
-3.99
14.91
43.07
78.38
118.37
161.32
206.90
258.63
319.55
391.48
472.40
556.08
633.87
698.19
745.46
761.24
739.11
678.43
586.10
473.78
354.23
238.13
132.94
43.09
-29.57
-78.24
-105.86
-117.33
-118.11
-113.21
-106.51
-100.07
-94.40
-89.44
-83.57
-76.45
-68.03
-59.53
-53.08
-51.28
-55.82
-67.20
-85.20
-108.40
-136.40
-169.44
-208.51
-254.44
-307.91
-367.87
-431.69
-496.10
-557.62
-613.47
-662.02
-702.18
-732.86
-754.47
-767.23
-770.67
-763.77
-744.87
-711.97
-665.83
-610.07
-550.66
-496.90
-457.09
-435.35
-430.29
-434.51
-435.48
-421.78
-385.96
-314.30
-206.23
-73.23
65.64
190.58
282.01
342.23
380.49
405.40
421.34
428.33
424.27
408.98
383.30
348.44
305.73
253.91
192.25
123.04
50.79
-17.65
-69.85
-97.83
-101.03
-85.57
-62.33
-40.39
-23.28
-10.36
-2.18
4.80
12.61
21.93
33.17
45.91
59.65
74.03
88.49
101.66
112.61
119.73
122.05
120.18
115.76
111.07
107.87
106.24
104.46
100.74
93.45
82.61
70.21
58.97
51.11
47.45
47.40
49.53
52.71
55.71
57.45
56.92
53.23
45.88
35.17
22.20
8.52
-4.08
-14.33
-21.57
-25.71
-27.15
-26.60
-24.97
-23.13
-21.72
-20.89
-20.44
-19.88
-18.67
-16.48
-13.43
-10.25
-8.28
-9.06
-13.77
-22.61
-34.34
-46.50
-56.19
-61.13
-60.43
-54.84
-46.17
-36.43
-27.13
-18.93
-11.87
-5.72
-0.43
3.74
6.30
6.64
4.42
-0.12
-5.89
-10.91
-12.73
-9.14
0.82
16.21
34.12
50.43
61.26
64.32
59.83
50.55
40.82
35.03
35.93
43.55
54.97
65.21
69.07
63.04
46.64
22.44
-5.12
-31.74
-54.93
-74.62
-92.45
-110.30
-128.91
-147.31
-163.33
-174.78
-180.47
-180.71
-176.85
-170.39
-162.06
-151.41
-137.11
-117.63
-91.83
-59.53
-21.47
20.99
65.95
111.01
153.34
190.30
220.31
243.72
262.70
280.42
299.54
320.62
341.34
357.11
362.73
354.60
332.29
298.26
257.27
215.17
177.50
148.34
129.61
121.00
121.00
127.55
137.93
149.66
161.27
172.50
183.77
195.30
206.44
216.02
222.28
221.77
209.87
182.03
135.34
69.97
-9.91
-96.70
-183.99
-262.40
-325.73
-374.33
-413.96
-450.21
-483.38
-507.38
-517.39
-508.79
-481.46
-441.44
-397.75
-358.26
-326.80
-303.57
-286.11
-272.55
-259.30
-242.11
-216.05
-176.02
-118.44
-41.27
53.70
160.58
267.53
362.50
436.10
483.61
505.49
506.36
492.88
471.10
445.16
416.93
387.52
357.35
326.38
294.45
261.65
228.49
195.50
163.48
133.18
105.43
80.31
56.72
32.55
5.35
-27.22
-67.02
-113.64
-163.52
-209.79
-244.20
-259.94
-254.18
-228.70
-189.86
-147.01
-108.47
-79.08
-59.50
-47.50
-40.32
-36.13
-33.91
-34.62
-41.61
-58.61
-88.42
-131.52
-185.14
-243.89
-300.50
-347.25
-370.95
-364.12
-326.77
-266.43
-194.35
-120.71
-52.90
-0.88
33.97
51.93
53.78
43.15
26.54
11.39
5.97
12.97
30.03
52.50
74.70
92.17
103.79
111.35
117.93
126.00
135.65
145.14
152.46
155.12
150.85
138.59
118.27
90.76
57.47
19.72
-21.03
-63.03
-105.56
-149.31
-195.88
-246.46
-300.17
-352.63
-396.35
-422.35
-423.46
-397.99
-351.13
-293.49
-237.12
-190.96
-158.15
-136.43
-120.87
-107.09
-93.08
-78.41
-62.31
-42.50
-15.87
19.09
60.00
100.38
131.69
147.29
145.69
131.28
112.18
96.52
89.32
91.13
98.94
108.41
116.16
121.50
126.38
134.11
147.73
168.31
194.04
220.38
241.18
250.19
243.28
218.67
177.00
121.35
57.29
-7.54
-64.47
-105.77
-127.20
-127.73
-110.55
-81.71
-47.65
-13.24
19.17
49.33
78.16
106.43
136.78
171.77
212.56
257.91
303.87
345.16
377.39
399.22
405.52
396.96
377.47
352.12
325.08
298.14
270.93
242.04
214.55
185.36
152.09
113.22
68.76
20.47
-28.65
-75.44
-117.11
-152.49
-183.95
-214.46
-247.40
-284.83
-326.15
-368.17
-406.03
-435.27
-453.54
-461.54
-460.57
-452.05
-436.50
-413.12
-381.23
-341.33
-296.48
-251.86
-213.07
-183.37
-163.02
-149.54
-138.54
-126.21
-110.39
-91.42
-71.44
-53.57
-38.30
-27.09
-21.55
-21.34
-27.49
-37.16
-45.58
-47.14
-34.67
-3.16
49.05
118.95
200.23
282.06
350.42
392.49
402.15
382.71
343.67
300.82
259.33
218.96
178.27
138.45
103.93
79.55
70.20
76.83
95.35
117.22
133.70
137.57
124.73
94.67
50.42
-2.07
-55.52
-102.64
-137.97
-157.95
-162.19
-153.58
-137.39
-119.65
-105.64
-99.11
-101.52
-111.90
-126.18
-138.01
-140.04
-125.65
-90.89
-36.49
31.39
101.85
161.97
200.67
211.99
196.66
161.24
115.37
68.03
25.38
-10.13
-38.67
-61.86
-80.58
-94.95
-105.33
-112.55
-118.00
-121.85
-124.26
-121.76
-110.12
-86.80
-52.48
-10.90
33.25
74.31
108.69
135.10
154.61
168.87
178.78
183.96
183.31
179.17
172.31
162.94
151.13
136.84
119.49
97.43
69.94
36.69
-1.88
-45.58
-93.45
-142.66
-188.98
-228.22
-257.73
-277.12
-288.15
-293.33
-291.66
-283.44
-269.73
-252.67
-234.93
-218.27
-202.15
-187.17
-168.81
-143.44
-110.66
-72.97
-34.59
0.55
30.59
55.57
77.65
100.75
127.07
155.99
184.27
207.11
219.84
219.64
206.27
181.98
151.28
118.45
87.06
59.87
38.77
24.77
18.07
17.85
22.71
31.93
44.72
61.04
81.14
104.80
130.83
157.21
181.82
200.62
211.73
215.20
213.46
209.43
204.90
200.03
194.29
187.48
180.02
175.40
172.92
170.29
164.85
154.97
141.20
126.04
112.63
102.77
96.06
89.53
80.03
65.46
45.91
23.81
2.78
-14.20
-26.21
-34.34
-41.34
-49.40
-59.25
-69.70
-78.38
-82.85
-81.80
-75.84
-67.43
-60.57
-59.46
-67.51
-86.68
-117.04
-156.87
-203.05
-251.75
-299.24
-342.83
-381.33
-414.78
-443.62
-467.59
-485.10
-493.65
-490.92
-476.16
-450.91
-418.61
-383.43
-348.86
-316.80
-287.60
-260.68
-235.41
-211.22
-187.25
-161.79
-132.16
-95.70
-51.54
-2.04
46.87
87.29
112.10
118.03
107.10
86.06
63.77
47.89
42.34
46.73
57.56
70.47
82.15
91.17
97.62
102.24
105.55
107.59
108.02
106.37
102.34
95.68
85.99
72.73
55.44
34.24
10.24
-14.47
-37.23
-55.40
-66.99
-70.86
-66.37
-52.79
-29.13
5.44
50.40
102.81
157.14
206.55
245.21
270.40
283.57
289.18
292.36
296.16
299.90
299.23
287.98
261.02
216.81
158.58
93.78
31.69
-19.65
-55.59
-75.51
-81.90
-78.75
-70.18
-59.91
-51.08
-46.29
-47.15
-53.72
-64.27
-75.62
-84.16
-86.74
-81.32
-67.04
-44.09
-13.71
21.70
58.71
93.32
121.66
140.61
148.24
143.91
128.47
104.60
76.45
48.99
26.68
12.42
6.92
8.87
15.78
24.81
33.32
39.01
40.06
35.41
25.13
10.68
-5.23
-19.33
-28.89
-32.63
-31.04
-26.06
-20.10
-14.99
-11.31
-8.40
-5.04
-0.35
5.70
12.33
18.55
23.97
29.02
34.73
41.96
50.76
60.16
68.62
74.67
77.38
76.78
73.56
68.72
63.23
57.91
53.34
50.33
49.67
51.77
56.41
62.30
66.99
67.44
60.99
45.87
22.66
-6.02
-36.47
-64.48
-86.54
-100.67
-106.69
-106.00
-101.79
-96.99
-93.73
-92.99
-93.70
-93.27
-88.87
-78.58
-61.99
-41.23
-18.54
4.30
21.80
29.66
25.61
9.68
-15.61
-40.18
-59.44
-70.74
-72.10
-62.12
-42.53
-15.66
14.57
43.43
66.75
81.22
86.58
84.70
78.10
69.32
60.38
52.25
45.26
39.37
33.72
28.11
22.82
18.33
15.49
15.25
17.95
23.11
29.46
34.81
37.39
36.05
30.28
20.35
7.31
-7.44
-22.34
-35.92
-47.31
-55.86
-61.26
-63.56
-62.97
-59.79
-54.48
-47.63
-39.96
-32.29
-25.32
-19.55
-15.29
-12.67
-11.61
-11.85
-12.93
-14.22
-14.96
-14.46
-12.26
-8.33
-3.11
2.59
7.73
11.37
12.74
11.42
7.35
0.91
-7.13
-15.65
-23.32
-28.80
-31.07
-29.61
-24.60
-16.83
-7.54
1.95
10.53
17.56
22.95
27.00
30.25
33.20
36.08
38.81
41.03
42.25
42.08
40.37
37.22
33.00
28.06
22.68
17.01
11.15
5.21
-0.70
-6.51
-12.30
-18.31
-24.69
-31.23
-37.18
-41.34
-42.44
-39.71
-33.21
-23.97
-13.54
-3.60
4.61
10.52
14.18
16.09
16.95
17.43
18.02
18.94
20.04
20.93
21.04
19.88
17.26
13.37
8.72
3.99
-0.19
-3.43
-5.71
-7.38
-9.05
-11.43
-15.08
-20.22
-26.65
-33.72
-40.55
-46.18
-49.86
-51.16
-50.09
-46.97
-42.44
-37.24
-32.09
-27.58
-24.08
-21.76
-20.64
-20.69
-21.84
-23.96
-26.81
-29.99
-32.99
-35.27
-36.50
-36.63
-35.95
-34.94
-34.06
-33.59
-33.46
-33.41
-33.13
-32.41
-31.15
-29.31
-26.79
-23.34
-18.58
-12.20
-4.07
5.56
16.11
26.75
36.61
44.95
51.29
55.37
57.14
56.73
54.36
50.40
45.34
39.80
34.39
29.65
25.81
22.85
20.52
18.50
16.63
14.96
13.74
13.21
13.52
14.53
15.94
17.50
19.18
21.25
24.13
28.15
33.28
39.12
44.98
50.15
54.17
56.88
58.30
58.52
57.56
55.42
52.15
48.00
43.36
38.70
34.41
30.65
27.36
24.27
21.04
17.46
13.48
9.29
5.18
1.38
-2.06
-5.31
-8.62
-12.10
-15.57
-18.54
-20.40
-20.67
-19.26
-16.48
-12.90
-9.12
-5.62
-2.69
-0.49
0.82
1.08
0.20
-1.88
-5.02
-9.03
-13.61
-18.47
-23.26
-27.62
-31.29
-34.11
-36.08
-37.39
-38.23
-38.74
-39.01
-39.07
-39.04
-39.06
-39.31
-39.70
-39.90
-39.27
-37.13
-32.99
-26.70
-18.57
-9.16
0.75
10.44
19.23
26.61
32.20
35.82
37.49
37.40
35.86
33.28
30.01
26.37
22.57
18.68
14.65
10.43
5.98
1.35
-3.32
-7.88
-12.27
-16.54
-20.85
-25.33
-29.98
-34.55
-38.58
-41.48
-42.74
-42.07
-39.45
-35.14
-29.64
-23.52
-17.34
-11.62
-6.76
-2.98
-0.38
1.13
1.69
1.44
0.50
-1.06
-3.16
-5.59
-8.13
-10.53
-12.68
-14.64
-16.56
-18.64
-20.94
-23.37
-25.66
-27.58
-28.94
-29.67
-29.81
-29.38
-28.33
-26.50
-23.65
-19.58
-14.19
-7.63
-0.25
7.32
14.36
20.11
23.90
25.30
24.25
20.98
16.10
10.36
4.44
-1.18
-6.35
-11.23
-16.12
-21.32
-26.92
-32.68
-38.22
-43.18
-47.38
-50.96
-54.26
-57.61
-61.07
-64.31
-66.63
-67.26
-65.60
-61.53
-55.40
-47.89
-39.79
-31.70
-23.92
-16.45
-9.17
-2.04
4.77
10.78
15.46
18.38
19.46
19.01
17.61
15.87
14.18
12.56
10.81
8.65
5.89
2.55
-1.30
-5.68
-10.76
-16.79
-23.76
-31.12
-37.68
-41.91
-42.46
-38.70
-31.07
-20.94
-10.20
-0.64
6.46
10.56
11.77
10.59
7.67
3.60
-1.18
-6.36
-11.76
-17.18
-22.42
-27.21
-31.25
-34.41
-36.75
-38.65
-40.70
-43.64
-48.13
-54.58
-62.90
-72.40
-81.69
-88.87
-91.92
-89.26
-80.31
-65.81
-47.62
-28.26
-10.14
5.14
17.09
26.27
33.77
40.71
47.77
55.00
62.02
68.19
72.98
76.07
77.28
76.55
73.80
68.96
62.07
53.37
43.27
32.31
20.95
9.48
-1.96
-13.23
-24.01
-33.69
-41.41
-46.29
-47.68
-45.49
-40.15
-32.55
-23.71
-14.57
-5.86
1.88
8.21
12.80
15.49
16.55
16.70
16.94
18.25
21.09
25.25
29.88
33.94
36.59
37.52
36.95
35.43
33.46
31.22
28.50
24.90
20.16
14.40
8.33
3.02
-0.45
-1.38
0.28
3.94
8.73
13.84
18.77
23.34
27.48
31.03
33.67
34.95
34.55
32.42
28.78
24.10
18.92
13.67
8.61
3.80
-0.81
-5.26
-9.41
-12.95
-15.48
-16.68
-16.51
-15.26
-13.45
-11.61
-10.01
-8.54
-6.71
-3.88
0.49
6.53
13.96
22.07
29.98
36.83
41.96
44.87
45.22
42.76
37.35
29.13
18.56
6.47
-6.12
-18.22
-29.11
-38.48
-46.32
-52.74
-57.79
-61.23
-62.59
-61.28
-56.89
-49.49
-39.78
-29.13
-19.30
-11.97
-8.39
-8.96
-13.14
-19.58
-26.36
-31.36
-32.59
-28.58
-18.60
-2.89
17.27
39.69
61.57
80.06
92.75
98.23
96.41
88.56
77.01
64.51
53.41
45.00
39.35
35.56
32.54
29.66
27.05
25.49
25.78
28.32
32.90
38.75
44.63
48.91
49.67
45.25
35.48
22.88
13.03
13.22
29.56
64.00
112.74
167.24
217.22
254.38
274.69
278.51
268.93
249.55
223.07
191.11
154.85
115.62
74.85
33.60
-7.98
-50.51
-94.72
-140.40
-185.83
-227.96
-263.30
-289.18
-304.75
-310.91
-309.52
-302.26
-289.90
-272.34
-249.31
-221.16
-189.19
-155.39
-121.84
-90.35
-62.34
-39.08
-21.59
-10.35
-4.69
-2.37
0.42
8.52
26.72
58.27
103.60
159.44
219.36
275.25
319.91
349.21
363.20
365.23
359.97
351.20
340.79
329.11
316.14
302.54
289.34
277.11
264.90
250.17
229.67
201.07
164.08
120.80
75.13
31.55
-6.05
-35.35
-56.22
-70.90
-83.61
-99.32
-122.00
-152.81
-189.29
-226.13
-257.26
-278.28
-288.18
-289.37
-286.08
-282.13
-279.31
-277.01
-273.28
-266.37
-255.92
-243.03
-229.37
-216.11
-203.24
-189.93
-175.50
-160.32
-146.09
-135.14
-129.13
-128.06
-129.95
-131.51
-129.50
-121.94
-108.67
-91.09
-71.22
-50.60
-29.75
-8.02
15.79
42.73
73.09
106.13
140.29
173.55
203.97
229.87
249.96
263.35
269.58
268.77
261.72
249.91
235.08
218.83
202.20
185.56
168.88
152.08
135.36
119.36
105.05
93.46
85.40
81.11
80.00
80.62
80.74
77.92
70.36
57.83
42.09
26.77
16.32
14.69
24.27
45.23
75.89
113.34
154.32
195.85
235.56
271.70
303.01
328.66
348.11
361.17
367.89
368.53
363.51
353.33
338.47
319.35
296.49
270.42
241.87
211.61
180.26
148.12
115.13
80.94
45.24
8.11
-29.89
-67.67
-104.01
-137.90
-168.91
-197.24
-223.55
-248.66
-273.12
-297.24
-320.92
-343.86
-365.75
-386.44
-406.17
-426.06
-448.49
-476.47
-512.37
-555.75
-601.94
-642.27
-666.40
-665.84
-636.93
-582.12
-508.86
-427.34
-347.92
-279.53
-228.83
-199.75
-192.88
-204.99
-229.15
-256.21
-277.24
-285.97
-280.35
-262.31
-236.22
-207.10
-179.09
-154.74
-135.11
-120.11
-108.93
-100.28
-92.57
-83.89
-72.11
-55.10
-31.08
0.59
38.58
79.16
116.66
145.09
160.24
161.72
153.30
141.91
135.29
139.40
156.60
185.25
220.40
255.15
282.37
296.08
293.20
274.50
244.58
210.48
179.24
155.04
137.89
124.32
109.08
88.94
64.57
40.58
23.43
18.31
26.83
46.47
71.86
95.52
110.60
111.93
97.24
67.78
28.56
-12.17
-44.64
-60.20
-56.58
-37.95
-14.24
3.25
6.56
-6.08
-30.70
-60.69
-86.15
-101.85
-106.91
-105.06
-100.75
-95.38
-86.39
-69.53
-45.30
-11.63
24.43
56.69
80.14
92.76
95.87
93.27
89.59
88.67
91.76
94.25
90.15
75.02
50.38
23.43
3.56
-2.81
4.36
19.40
31.31
29.80
8.74
-29.97
-77.67
-123.18
-158.44
-180.36
-187.77
-180.92
-159.49
-124.55
-77.70
-23.94
29.39
74.72
108.14
132.41
154.33
181.41
216.27
256.99
297.33
329.86
348.56
345.11
317.55
269.06
215.09
163.00
115.99
72.46
32.97
-0.99
-27.52
-44.58
-51.94
-51.71
-48.98
-47.91
-50.55
-55.98
-61.55
-64.03
-60.60
-50.96
-37.66
-26.16
-20.89
-23.91
-34.11
-48.67
-64.47
-78.95
-91.16
-101.48
-111.08
-119.79
-126.03
-127.51
-122.83
-112.16
-97.06
-79.88
-62.87
-47.65
-34.45
-22.53
-10.92
0.74
12.13
22.59
31.55
38.87
44.75
49.54
53.39
55.96
56.53
54.25
48.65
39.85
28.60
16.14
3.89
-6.89
-15.36
-21.27
-24.99
-27.30
-29.03
-30.72
-32.40
-33.68
-33.91
-32.48
-29.01
-23.35
-15.52
-5.67
5.91
18.72
32.06
45.05
56.74
66.18
72.57
75.40
74.63
70.83
65.14
58.98
53.58
49.60
46.79
44.22
40.68
35.21
27.55
18.29
8.68
0.22
-5.94
-9.46
-11.21
-13.09
-17.50
-26.37
-40.33
-58.26
-77.44
-94.42
-106.01
-110.29
-106.94
-97.04
-82.60
-65.79
-48.63
-32.71
-19.13
-8.50
-0.84
4.43
8.54
13.02
19.36
28.58
40.88
55.52
70.99
85.35
96.70
103.77
106.11
104.33
99.77
94.02
88.37
83.33
78.60
73.32
66.53
57.66
46.77
34.62
22.34
11.10
1.80
-5.06
-9.37
-11.16
-10.40
-6.89
-0.47
8.69
19.90
31.81
42.68
50.78
54.86
54.45
49.91
42.23
32.72
22.60
12.65
3.08
-6.50
-16.70
-27.93
-39.95
-51.63
-61.24
-67.01
-67.85
-63.84
-56.30
-47.39
-39.50
-34.63
-33.88
-37.31
-44.05
-52.51
-60.73
-66.74
-68.93
-66.48
-59.54
-49.43
-38.29
-28.49
-21.84
-18.96
-19.05
-20.08
-19.41
-14.50
-3.59
13.71
36.11
60.62
82.96
98.52
103.79
97.54
81.52
60.03
38.46
21.42
11.35
8.02
9.12
11.56
12.76
11.32
7.16
1.02
-6.00
-12.85
-18.57
-22.16
-22.70
-19.56
-12.66
-2.65
9.08
20.77
30.76
37.98
42.17
43.94
44.43
44.82
45.79
47.05
47.32
44.78
37.96
26.64
12.33
-1.95
-12.71
-17.23
-14.56
-5.85
6.06
17.57
25.38
27.20
22.19
11.08
-4.19
-20.85
-35.94
-47.03
-52.64
-52.46
-47.26
-38.58
-28.42
-18.87
-11.87
-8.77
-10.07
-15.12
-22.20
-28.94
-33.04
-33.01
-28.81
-21.76
-14.08
-7.96
-4.66
-4.08
-4.75
-4.59
-1.76
4.64
14.12
25.05
35.20
42.44
45.36
43.67
38.12
30.20
21.64
13.89
7.79
3.46
0.46
-1.89
-4.13
-6.48
-8.69
-10.22
-10.51
-9.23
-6.50
-2.75
1.47
5.87
10.51
15.59
20.94
25.60
28.07
27.04
22.36
15.65
9.93
8.38
12.87
22.97
36.06
48.49
57.08
60.13
57.71
50.96
41.32
29.94
17.55
4.80
-7.48
-18.29
-26.67
-31.96
-34.12
-33.63
-31.40
-28.43
-25.78
-24.38
-25.12
-28.69
-35.44
-45.12
-56.68
-68.30
-77.78
-82.99
-82.60
-76.60
-66.61
-55.69
-47.69
-46.09
-52.79
-67.24
-86.50
-106.17
-121.93
-130.90
-132.24
-126.86
-116.26
-101.80
-84.39
-65.01
-45.34
-27.80
-14.91
-8.14
-7.09
-9.53
-12.37
-13.04
-10.43
-5.09
1.51
7.94
13.48
18.24
22.74
27.39
32.09
36.24
39.01
39.65
37.79
33.46
27.09
19.44
11.47
4.25
-1.18
-4.03
-3.90
-0.84
4.68
12.01
20.38
29.13
37.76
45.85
53.04
58.98
63.23
65.34
64.81
61.19
54.27
44.22
31.73
17.94
4.37
-7.50
-16.48
-22.00
-24.15
-23.60
-21.37
-18.60
-16.30
-15.21
-15.66
-17.52
-20.19
-22.68
-23.81
-22.55
-18.36
-11.44
-2.80
5.96
13.10
17.21
17.56
14.18
7.75
-0.75
-10.26
-19.86
-28.83
-36.64
-42.93
-47.58
-50.67
-52.44
-53.24
-53.30
-52.72
-51.44
-49.43
-46.81
-44.04
-41.78
-40.63
-40.81
-41.87
-42.57
-41.13
-35.68
-24.90
-8.50
12.52
36.03
59.14
78.91
93.03
100.29
100.85
95.98
87.68
78.08
68.98
61.57
56.42
53.53
52.58
53.02
54.17
55.27
55.67
54.85
52.58
48.94
44.27
39.02
33.56
28.11
22.65
17.05
11.28
5.58
0.55
-3.01
-4.40
-3.30
0.07
4.92
10.21
14.91
18.28
19.96
19.97
18.55
16.03
12.79
9.22
5.73
2.67
0.36
-1.08
-1.69
-1.68
-1.31
-0.86
-0.54
-0.55
-1.09
-2.42
-4.74
-8.21
-12.86
-18.49
-24.67
-30.71
-35.73
-38.74
-38.93
-35.86
-29.72
-21.32
-11.91
-2.84
4.82
10.49
14.15
16.15
17.00
17.22
17.23
17.30
17.57
17.94
18.15
17.82
16.63
14.50
11.69
8.75
6.25
4.40
2.94
1.09
-2.10
-7.41
-14.99
-24.30
-34.12
-42.83
-48.84
-50.91
-48.43
-41.57
-31.17
-18.52
-5.11
7.76
19.07
28.18
34.69
38.37
39.17
37.33
33.46
28.50
23.52
19.48
16.94
16.08
16.75
18.70
21.74
25.73
30.38
35.17
39.23
41.53
41.20
37.79
31.44
22.88
13.19
3.54
-5.06
-11.91
-16.72
-19.60
-20.90
-21.13
-20.77
-20.15
-19.42
-18.58
-17.56
-16.32
-14.78
-12.79
-10.16
-6.62
-2.07
3.39
9.31
15.08
20.15
24.25
27.58
30.75
34.57
39.84
47.01
55.95
65.78
74.72
80.45
80.52
73.15
57.92
36.14
10.69
-14.66
-36.20
-51.19
-58.34
-57.97
-51.65
-41.69
-30.61
-20.58
-13.16
-9.07
-8.27
-10.11
-13.62
-17.75
-21.55
-24.29
-25.54
-25.31
-23.93
-22.01
-20.15
-18.78
-17.95
-17.42
-16.84
-16.03
-15.13
-14.47
-14.45
-15.29
-16.97
-19.20
-21.54
-23.50
-24.48
-23.92
-21.37
-16.70
-10.28
-2.98
4.09
9.78
13.38
14.66
13.87
11.48
8.00
3.82
-0.80
-5.61
-10.34
-14.66
-18.26
-20.91
-22.62
-23.65
-24.48
-25.59
-27.39
-29.94
-32.90
-35.61
-37.23
-36.99
-34.41
-29.49
-22.67
-14.75
-6.67
0.79
7.09
12.11
15.99
18.96
21.25
22.88
23.73
23.60
22.30
19.78
16.16
11.86
7.48
3.74
1.24
0.24
0.58
1.77
3.17
4.38
5.27
6.05
7.10
8.78
11.36
15.05
20.02
26.34
33.88
42.17
50.50
58.19
64.84
70.65
76.33
82.81
90.79
100.27
110.33
119.14
124.40
123.95
116.33
101.26
79.67
53.57
25.51
-1.77
-25.82
-44.67
-57.12
-62.94
-62.97
-59.03
-53.55
-48.87
-46.55
-46.99
-49.43
-52.42
-54.49
-54.67
-52.74
-49.07
-44.31
-39.09
-33.90
-29.18
-25.40
-23.11
-22.76
-24.46
-27.85
-32.19
-36.67
-40.72
-44.12
-46.92
-49.14
-50.60
-50.94
-49.84
-47.35
-44.00
-40.71
-38.46
-38.03
-39.77
-43.59
-49.03
-55.36
-61.65
-66.88
-70.10
-70.55
-67.82
-61.84
-52.91
-41.65
-28.97
-15.95
-3.68
6.94
15.48
21.98
26.86
30.68
33.78
36.26
37.92
38.63
38.43
37.67
36.89
36.68
37.42
39.19
41.61
43.84
44.72
43.02
37.91
29.45
18.83
8.25
0.27
-3.00
-0.61
6.92
17.87
29.85
40.59
48.41
52.53
53.00
50.50
46.14
41.11
36.57
33.45
32.43
33.98
38.45
46.02
56.54
69.32
82.93
95.25
103.75
105.96
100.18
85.98
64.53
38.48
11.49
-12.55
-30.38
-40.03
-41.14
-34.91
-23.52
-9.55
4.64
17.27
27.16
33.68
36.57
35.86
31.75
24.45
14.09
0.60
-16.09
-35.57
-56.61
-77.02
-94.11
-105.64
-110.64
-109.93
-105.79
-101.06
-98.21
-98.64
-102.66
-109.73
-118.84
-128.75
-137.97
-144.87
-147.92
-146.06
-139.05
-127.62
-113.16
-97.37
-81.69
-67.09
-53.94
-42.16
-31.49
-21.69
-12.64
-4.39
2.85
8.84
13.40
16.46
18.11
18.60
18.23
17.35
16.21
14.96
13.56
11.84
9.50
6.21
1.77
-3.77
-10.02
-16.21
-21.37
-24.54
-25.06
-22.76
-18.04
-11.71
-4.75
1.94
7.68
12.13
15.20
16.89
17.30
16.54
14.79
12.29
9.33
6.21
3.12
0.09
-3.01
-6.38
-10.18
-14.45
-19.08
-23.92
-28.89
-34.02
-39.48
-45.41
-51.78
-58.20
-63.85
-67.63
-68.31
-64.73
-56.16
-42.54
-24.61
-3.79
18.11
39.27
58.20
73.94
85.99
94.15
98.42
98.99
96.35
91.31
84.94
78.41
72.59
67.97
64.53
61.94
59.72
57.47
54.91
52.03
49.02
46.15
43.67
41.69
40.07
38.42
36.28
33.30
29.58
25.84
23.35
23.64
28.02
37.05
50.24
66.01
81.99
95.55
104.35
106.79
102.23
91.01
74.32
54.03
32.39
11.74
-5.82
-18.75
-26.32
-28.71
-26.85
-22.17
-16.14
-9.88
-3.97
1.51
6.77
12.00
17.27
22.48
27.39
31.76
35.33
37.76
38.72
37.94
35.41
31.52
27.01
22.71
19.18
16.47
14.15
11.53
8.08
3.64
-1.45
-6.61
-11.17
-14.69
-17.05
-18.50
-19.48
-20.52
-22.08
-24.49
-28.00
-32.70
-38.60
-45.52
-53.13
-60.84
-67.91
-73.63
-77.53
-79.56
-79.97
-79.17
-77.47
-74.96
-71.56
-67.16
-61.71
-55.27
-47.85
-39.35
-29.52
-18.16
-5.39
8.33
22.14
35.13
46.60
56.24
64.14
70.54
75.66
79.58
82.24
83.67
84.21
84.55
85.60
88.08
92.03
96.59
100.02
100.20
95.27
84.22
67.16
45.31
20.64
-4.51
-27.86
-47.50
-62.27
-71.95
-77.37
-80.17
-82.24
-85.02
-88.99
-93.44
-96.95
-97.95
-95.41
-89.16
-79.85
-68.53
-56.21
-43.68
-31.46
-19.98
-9.74
-1.32
4.87
8.76
10.78
11.78
12.71
14.30
16.83
20.08
23.51
26.54
28.68
29.65
29.24
27.24
23.44
17.71
10.23
1.52
-7.48
-15.66
-21.91
-25.43
-25.76
-22.85
-16.93
-8.55
1.45
12.00
21.84
29.81
35.15
37.73
38.05
37.11
35.99
35.61
36.51
38.84
42.45
46.87
51.36
54.84
55.99
53.51
46.51
34.93
19.68
2.60
-13.98
-27.76
-37.06
-41.25
-40.84
-37.31
-32.61
-28.58
-26.46
-26.70
-28.99
-32.63
-36.75
-40.57
-43.42
-44.66
-43.68
-39.99
-33.49
-24.54
-14.08
-3.37
6.33
14.13
19.66
23.07
24.88
25.71
26.12
26.37
26.39
25.73
23.78
19.96
14.10
6.61
-1.58
-9.28
-15.56
-20.07
-23.21
-25.85
-28.88
-32.79
-37.37
-41.77
-44.69
-44.70
-40.57
-31.64
-18.16
-1.68
14.91
27.79
33.33
29.55
17.15
-0.40
-17.99
-30.84
-36.27
-34.45
-27.78
-19.37
-11.57
-5.24
-0.03
4.76
9.46
13.81
17.33
19.78
21.37
22.63
24.08
25.98
28.34
31.05
34.07
37.51
41.59
46.51
52.26
58.35
63.82
67.37
67.72
64.23
57.21
47.99
38.47
30.48
25.04
22.03
20.28
18.27
14.78
9.46
3.00
-3.35
-8.44
-11.89
-14.26
-16.83
-20.86
-26.92
-34.58
-42.54
-49.26
-53.54
-54.95
-53.82
-50.90
-47.07
-43.00
-39.11
-35.55
-32.23
-28.74
-24.33
-17.92
-8.27
5.46
23.18
43.36
63.01
78.36
86.04
84.37
74.15
58.42
41.42
26.94
17.20
12.48
11.55
12.48
13.41
12.73
9.08
1.37
-11.11
-28.23
-48.77
-70.41
-90.31
-105.82
-115.32
-118.48
-116.22
-110.17
-102.13
-93.59
-85.52
-78.43
-72.50
-67.72
-63.98
-61.10
-58.85
-56.96
-55.21
-53.36
-51.17
-48.21
-43.99
-38.02
-30.10
-20.57
-10.31
-0.49
7.79
13.89
17.77
19.75
20.14
18.93
15.65
9.67
0.67
-10.96
-23.92
-36.31
-46.05
-51.47
-51.67
-46.65
-37.12
-24.25
-9.38
6.24
21.68
36.53
51.00
65.56
80.41
94.88
107.09
114.49
114.91
107.76
94.70
79.30
65.81
57.65
56.46
61.85
71.83
83.47
93.32
97.61
92.61
75.41
45.10
3.83
-43.07
-88.18
-124.07
-145.67
-151.69
-144.69
-129.73
-112.24
-96.32
-83.90
-75.07
-69.01
-64.86
-62.09
-60.31
-58.92
-57.02
-53.68
-48.38
-41.26
-33.05
-24.51
-16.05
-7.51
1.57
11.49
21.94
31.91
39.92
44.44
44.43
39.67
30.86
19.43
7.22
-4.06
-13.15
-19.45
-23.04
-24.33
-23.79
-21.69
-18.01
-12.59
-5.37
3.41
13.16
23.00
32.07
39.68
45.58
50.04
53.83
58.04
63.72
71.35
80.53
89.89
97.56
101.90
102.19
98.93
93.54
87.78
83.07
80.13
78.96
78.98
79.20
78.23
74.35
65.69
50.80
29.32
2.33
-27.71
-57.74
-84.98
-107.72
-125.40
-138.36
-147.24
-152.58
-154.74
-154.12
-151.39
-147.45
-143.22
-139.19
-135.19
-130.58
-124.56
-116.69
-107.09
-96.40
-85.45
-74.91
-65.08
-55.99
-47.50
-39.56
-32.33
-26.12
-21.18
-17.65
-15.33
-13.94
-13.21
-13.06
-13.59
-14.94
-17.06
-19.54
-21.67
-22.58
-21.57
-18.30
-12.87
-5.72
2.54
11.35
20.29
29.24
38.25
47.53
57.27
67.52
78.21
89.25
100.70
112.85
126.13
140.84
156.82
173.28
188.83
201.85
210.88
214.98
213.99
208.49
199.74
189.47
179.68
172.22
168.32
167.93
169.27
169.06
163.28
148.57
123.60
89.84
51.33
13.55
-18.27
-40.48
-51.77
-52.97
-46.26
-34.20
-19.01
-2.17
15.65
34.44
54.75
77.34
102.89
131.42
161.73
191.04
215.23
229.64
230.37
215.56
185.97
144.73
96.28
45.12
-5.19
-52.26
-94.64
-131.32
-161.49
-184.62
-200.73
-210.52
-215.25
-216.29
-214.80
-211.46
-206.55
-200.15
-192.22
-182.70
-171.43
-158.21
-142.90
-125.69
-107.24
-88.64
-71.21
-56.10
-44.01
-35.02
-28.77
-24.55
-21.62
-19.22
-16.73
-13.73
-10.17
-6.48
-3.47
-2.13
-3.24
-7.00
-12.96
-20.13
-27.32
-33.49
-38.02
-40.77
-42.01
-42.24
-41.98
-41.49
-40.69
-39.18
-36.38
-31.86
-25.56
-17.96
-9.89
-2.29
4.17
9.16
12.78
15.21
16.69
17.30
17.04
15.89
13.83
11.01
7.84
5.05
3.68
4.90
9.49
17.42
27.50
37.47
44.59
46.44
41.67
30.43
14.33
-3.96
-21.29
-34.68
-41.84
-41.64
-34.40
-21.86
-6.83
7.46
18.23
23.78
23.87
19.56
12.78
5.67
0.15
-2.56
-1.93
1.81
7.94
15.47
23.39
30.90
37.48
42.94
47.25
50.51
52.76
53.96
53.97
52.51
49.26
43.89
36.23
26.46
15.18
3.46
-7.35
-15.91
-21.20
-22.78
-20.91
-16.45
-10.64
-4.82
-0.13
2.66
3.20
1.50
-2.15
-7.26
-13.21
-19.25
-24.57
-28.46
-30.41
-30.25
-28.17
-24.60
-20.09
-15.18
-10.30
-5.84
-2.16
0.47
1.84
1.92
0.92
-0.74
-2.49
-3.67
-3.79
-2.55
-0.02
3.39
7.12
10.59
13.49
15.79
17.68
19.32
20.67
21.41
21.07
19.31
16.15
12.05
7.80
4.22
1.98
1.52
3.03
6.51
11.84
18.68
26.40
34.08
40.65
45.09
46.74
45.51
41.94
37.11
32.44
29.40
29.22
32.58
39.41
48.75
58.95
67.82
73.23
73.53
68.00
57.07
42.19
25.38
8.57
-7.00
-21.17
-34.83
-49.65
-67.43
-89.58
-116.53
-147.51
-180.68
-213.47
-243.24
-267.79
-285.85
-297.04
-301.86
-301.08
-295.46
-285.51
-271.54
-253.83
-232.63
-208.30
-181.17
-151.79
-120.96
-89.80
-59.80
-32.50
-9.21
9.43
23.51
34.00
42.12
49.21
56.46
64.66
74.11
84.53
95.36
105.81
116.88
129.30
143.80
160.82
180.23
201.20
222.15
241.30
256.92
268.15
274.68
276.76
274.93
269.74
261.71
251.08
239.53
227.05
213.88
200.34
186.89
173.97
161.87
150.77
140.42
130.68
121.35
112.69
104.95
98.19
91.99
85.21
78.13
70.07
60.36
48.57
35.13
21.02
7.36
-5.02
-16.06
-26.50
-37.93
-51.83
-69.13
-89.64
-112.41
-136.20
-160.06
-183.75
-207.71
-233.02
-260.90
-292.72
-329.75
-372.63
-420.28
-468.77
-511.13
-538.68
-543.92
-523.20
-478.37
-415.94
-344.69
-272.45
-203.96
-140.61
-81.80
-26.79
24.33
70.72
111.50
146.22
174.62
195.84
207.96
208.36
195.01
168.04
130.57
88.43
48.34
15.68
-7.20
-21.46
-30.70
-39.12
-49.60
-62.65
-76.38
-87.58
-92.94
-90.33
-79.37
-61.63
-40.18
-18.68
-0.30
13.24
22.12
28.09
33.47
39.90
47.50
54.89
60.17
62.08
60.91
58.35
56.71
57.90
62.79
71.39
83.35
98.50
116.87
138.32
161.87
185.32
205.27
218.00
220.87
213.57
198.77
181.82
169.40
167.39
178.64
201.83
231.76
261.26
283.81
295.66
296.51
288.59
274.95
258.03
239.15
219.02
198.57
179.25
162.39
148.23
135.21
120.22
99.93
72.30
37.64
-1.48
-41.26
-77.94
-108.94
-133.27
-151.31
-164.41
-174.33
-182.83
-191.44
-201.22
-212.73
-226.17
-241.62
-259.28
-279.57
-302.85
-328.61
-354.65
-376.71
-389.01
-385.76
-363.11
-320.44
-260.91
-190.80
-118.04
-50.48
5.75
47.37
74.27
89.01
95.94
99.69
103.63
108.93
114.37
116.93
113.15
100.35
77.36
45.51
8.63
-27.66
-57.09
-74.10
-74.97
-58.47
-26.19
16.81
63.66
106.83
139.63
157.58
159.40
147.18
125.64
100.26
74.12
48.44
22.67
-4.66
-35.13
-69.81
-109.07
-152.18
-197.32
-243.01
-286.01
-322.00
-346.93
-358.83
-358.70
-350.53
-339.47
-319.07
-286.70
-242.87
-192.18
-141.89
-98.92
-67.15
-47.21
-36.80
-32.53
-32.90
-36.71
-43.17
-51.34
-59.90
-66.51
-70.60
-69.32
-60.37
-43.90
-20.70
8.22
41.90
79.17
118.90
158.90
196.60
229.49
255.09
272.52
282.58
287.49
285.60
277.95
266.66
254.76
245.38
240.15
238.95
239.59
238.61
232.59
220.51
203.67
185.89
172.53
168.34
175.76
193.60
217.11
239.01
252.31
251.66
235.09
204.79
165.80
124.51
86.87
57.35
37.72
27.59
24.39
20.37
9.00
-13.88
-48.39
-91.15
-137.01
-181.59
-221.66
-254.99
-280.00
-294.98
-298.93
-291.76
-276.28
-254.45
-228.89
-202.84
-179.60
-161.72
-149.56
-141.44
-134.34
-125.34
-112.84
-97.39
-80.74
-64.53
-49.49
-35.19
-21.34
-8.96
-0.65
0.51
-7.17
-22.64
-41.27
-57.28
-66.21
-67.26
-63.40
-59.50
-59.64
-64.39
-70.76
-72.43
-63.29
-39.71
-1.87
47.02
102.07
158.01
211.52
260.75
307.06
352.99
401.32
453.26
507.36
558.99
600.42
624.19
612.97
556.30
453.72
316.54
163.62
14.46
-113.17
-217.20
-299.69
-363.26
-408.41
-435.89
-446.09
-442.60
-431.21
-418.00
-407.87
-401.66
-397.63
-391.50
-379.40
-359.16
-331.19
-297.81
-262.34
-228.75
-199.76
-177.56
-162.75
-154.84
-152.08
-152.21
-152.69
-151.07
-145.14
-131.91
-108.44
-72.48
-24.11
33.39
93.66
149.18
193.68
223.92
240.57
246.66
246.01
241.82
236.51
232.26
231.32
235.64
245.69
260.03
275.47
288.52
297.11
301.46
303.43
304.56
304.95
302.63
294.94
280.06
258.05
230.56
199.73
166.93
132.12
95.28
57.42
22.20
-4.81
-18.16
-15.44
0.89
23.74
43.21
51.16
43.77
23.56
-2.13
-23.95
-34.28
-29.60
-10.93
16.65
47.32
70.24
77.05
64.23
35.08
-3.00
-43.52
-81.25
-119.80
-162.30
-207.29
-247.73
-274.82
-281.36
-266.47
-236.39
-200.23
-167.46
-141.73
-119.88
-95.01
-62.53
-23.48
14.78
43.82
59.16
61.08
56.02
52.80
58.02
71.69
89.10
101.78
101.42
82.52
45.55
-6.96
-70.09
-137.54
-202.88
-258.08
-296.32
-309.00
-291.34
-245.12
-179.08
-105.84
-37.49
17.56
60.31
94.57
123.92
149.44
170.09
183.10
187.75
185.82
180.44
174.21
166.50
154.28
133.57
102.25
61.72
17.04
-25.28
-59.80
-83.57
-96.63
-100.22
-95.86
-84.82
-68.75
-49.91
-31.43
-16.70
-8.16
-6.56
-10.46
-16.86
-22.27
-24.00
-20.68
-12.52
-0.99
11.95
24.33
34.84
43.02
49.21
54.16
58.68
63.20
67.65
71.47
73.72
73.47
70.09
63.52
54.28
43.35
31.90
21.06
11.71
4.42
-0.56
-3.31
-4.30
-4.36
-4.52
-5.73
-8.63
-13.36
-19.63
-26.88
-34.59
-42.43
-50.27
-58.06
-65.65
-72.58
-78.16
-81.63
-82.49
-80.78
-77.16
-72.70
-68.49
-65.17
-62.73
-60.65
-58.23
-54.98
-50.73
-45.57
-39.53
-32.45
-24.07
-14.23
-3.20
8.29
19.32
29.05
36.97
42.95
47.01
49.14
49.20
46.92
42.25
35.42
27.06
18.08
9.35
1.58
-4.87
-9.92
-13.67
-16.23
-17.63
-17.82
-16.77
-14.58
-11.59
-8.21
-4.77
-1.38
2.12
5.95
10.24
14.89
19.62
24.26
28.80
33.48
38.57
44.07
49.70
54.98
59.51
63.24
66.38
69.14
71.40
72.62
71.97
68.80
62.90
54.61
44.57
33.48
21.77
9.59
-2.97
-15.77
-28.44
-40.43
-51.20
-60.34
-67.66
-73.09
-76.65
-78.28
-77.95
-75.69
-71.68
-66.26
-59.69
-52.10
-43.45
-33.75
-23.45
-13.59
-5.65
-0.87
0.32
-1.22
-3.72
-5.22
-4.51
-1.64
2.18
5.30
6.45
5.15
1.68
-3.42
-9.80
-17.49
-26.72
-37.49
-49.22
-60.65
-70.13
-76.12
-77.77
-75.22
-69.53
-62.31
-55.04
-48.51
-42.56
-36.28
-28.56
-18.61
-6.45
7.08
20.51
32.22
40.81
45.42
45.86
42.59
36.51
28.82
20.64
12.89
6.22
1.02
-2.47
-4.25
-4.67
-4.60
-5.40
-8.58
-15.28
-25.63
-38.50
-51.72
-62.81
-69.71
-71.47
-68.37
-61.63
-52.91
-43.75
-35.22
-27.79
-21.40
-15.60
-9.72
-3.26
3.88
11.16
17.48
21.45
21.98
18.76
12.57
5.08
-1.70
-6.09
-7.28
-5.51
-1.84
2.25
5.33
6.27
4.43
-0.29
-7.42
-16.00
-24.70
-32.14
-37.17
-39.20
-38.24
-34.87
-30.06
-24.84
-20.12
-16.49
-14.19
-13.12
-12.91
-13.03
-12.90
-12.12
-10.51
-8.31
-6.06
-4.52
-4.36
-5.89
-8.93
-12.92
-17.19
-21.31
-25.32
-29.50
-34.13
-39.01
-43.38
-46.06
-45.87
-42.16
-35.02
-25.30
-14.26
-3.11
7.30
16.60
24.69
31.56
37.00
40.60
41.91
40.63
36.93
31.41
25.03
18.80
13.44
9.13
5.58
2.15
-1.74
-6.39
-11.72
-17.33
-22.74
-27.59
-31.75
-35.22
-38.09
-40.45
-42.45
-44.33
-46.33
-48.44
-50.09
-49.98
-46.39
-37.72
-23.34
-4.01
18.13
40.25
59.67
74.60
84.38
89.30
90.04
87.27
81.47
72.98
62.25
50.07
37.56
25.99
16.52
9.83
5.93
4.07
3.00
1.33
-2.02
-7.55
-15.03
-23.59
-31.81
-37.94
-40.19
-37.09
-28.03
-13.51
4.72
24.12
42.00
56.29
66.04
71.46
73.61
73.75
72.91
71.57
69.74
67.13
63.46
58.58
52.56
45.52
37.59
28.80
19.14
8.66
-2.40
-13.61
-24.45
-34.48
-43.47
-51.40
-58.40
-64.52
-69.59
-73.15
-74.45
-72.67
-67.13
-57.62
-44.58
-29.20
-13.31
0.96
11.69
17.72
18.96
16.41
11.87
7.32
4.44
4.12
6.51
11.12
17.04
23.24
28.58
31.98
32.46
29.40
22.61
12.41
-0.39
-14.67
-29.11
-42.32
-52.96
-59.87
-62.17
-59.49
-52.02
-40.59
-26.50
-11.35
3.33
16.37
27.12
35.55
42.03
47.05
50.89
53.45
54.32
53.09
49.65
44.42
38.29
32.33
27.54
24.51
23.32
23.50
24.21
24.38
22.92
18.93
11.94
2.05
-9.94
-22.61
-34.10
-42.52
-46.38
-45.01
-38.68
-28.52
-16.13
-3.13
9.21
20.13
29.26
36.43
41.56
44.68
45.90
45.52
43.82
40.97
36.90
31.45
24.52
16.40
7.81
-0.20
-6.61
-10.85
-12.99
-13.69
-13.95
-14.81
-16.99
-20.86
-26.31
-32.83
-39.46
-44.96
-47.91
-47.04
-41.45
-31.02
-16.43
0.81
18.77
35.46
49.22
59.05
64.61
66.15
64.32
60.03
54.25
47.91
41.80
36.43
31.97
28.23
24.84
21.28
17.19
12.36
6.76
0.49
-6.34
-13.62
-21.22
-28.87
-36.00
-41.71
-44.79
-44.07
-38.71
-28.64
-14.69
1.55
18.01
32.72
44.07
51.21
53.99
52.98
49.23
44.07
38.81
34.46
31.49
29.84
28.96
28.08
26.51
23.79
19.84
14.84
9.15
3.14
-2.91
-8.93
-15.01
-21.24
-27.57
-33.66
-38.74
-41.86
-42.08
-38.84
-32.17
-22.64
-11.24
0.90
12.74
23.43
32.36
39.15
43.67
46.02
46.52
45.56
43.49
40.50
36.63
31.99
26.78
21.43
16.48
12.38
9.29
7.04
5.20
3.16
0.31
-3.90
-9.83
-17.52
-26.56
-35.96
-44.23
-49.71
-51.00
-47.42
-39.24
-27.60
-14.15
-0.62
11.57
21.43
28.40
32.31
33.25
31.63
28.18
23.83
19.49
15.84
13.10
11.09
9.35
7.50
5.37
3.11
0.92
-1.02
-2.83
-4.81
-7.30
-10.49
-14.39
-18.73
-23.08
-26.96
-29.86
-31.27
-30.65
-27.51
-21.59
-13.09
-2.76
8.17
18.36
26.78
32.98
37.09
39.50
40.51
40.25
38.66
35.86
32.26
28.57
25.33
22.65
20.04
16.72
12.08
6.09
-0.69
-7.40
-13.43
-18.67
-23.53
-28.52
-33.82
-39.01
-43.16
-45.25
-44.62
-41.32
-36.03
-29.69
-23.16
-16.87
-10.82
-4.84
1.08
6.69
11.42
14.64
16.02
15.65
14.08
12.05
10.15
8.55
7.00
4.96
2.02
-1.85
-6.25
-10.50
-14.02
-16.65
-18.61
-20.47
-22.78
-25.96
-30.07
-34.87
-39.71
-43.65
-45.57
-44.33
-39.16
-29.79
-16.62
-0.61
16.87
34.17
49.66
61.93
70.15
74.21
74.69
72.59
68.82
63.87
57.72
50.22
41.55
32.41
23.89
16.97
12.01
8.61
5.80
2.64
-1.41
-6.24
-11.37
-16.18
-20.22
-23.33
-25.52
-26.79
-27.02
-25.96
-23.44
-19.45
-14.27
-8.44
-2.51
3.13
8.43
13.56
18.51
22.81
25.36
24.74
19.91
10.90
-0.88
-13.01
-22.94
-29.02
-31.09
-30.42
-29.02
-28.73
-30.53
-34.41
-39.66
-45.38
-50.96
-56.17
-60.97
-65.23
-68.50
-69.97
-68.85
-64.60
-57.31
-47.61
-36.50
-24.91
-13.49
-2.52
7.92
17.73
26.64
34.24
40.18
44.28
46.63
47.45
46.96
45.24
42.26
37.97
32.52
26.35
20.20
14.94
11.30
9.61
9.63
10.61
11.55
11.54
10.04
7.03
2.89
-1.75
-6.22
-9.93
-12.42
-13.34
-12.50
-9.89
-5.70
-0.34
5.61
11.50
16.71
20.73
23.27
24.25
23.81
22.24
19.88
17.00
13.79
10.38
6.83
3.21
-0.37
-3.82
-7.03
-9.95
-12.49
-14.55
-16.05
-16.97
-17.47
-17.84
-18.34
-19.02
-19.58
-19.34
-17.55
-13.73
-7.90
-0.67
7.05
14.35
20.66
25.79
29.81
32.77
34.54
34.77
33.11
29.38
23.81
16.98
9.75
2.97
-2.75
-7.20
-10.54
-13.13
-15.36
-17.53
-19.82
-22.33
-25.12
-28.21
-31.45
-34.49
-36.82
-37.96
-37.63
-35.85
-32.89
-29.04
-24.48
-19.15
-12.90
-5.64
2.40
10.71
18.58
25.41
30.85
34.88
37.66
39.36
39.96
39.24
36.88
32.62
26.47
18.77
10.18
1.46
-6.65
-13.58
-19.05
-23.07
-25.91
-27.96
-29.65
-31.33
-33.20
-35.21
-37.04
-38.16
-37.94
-35.98
-32.24
-27.16
-21.47
-15.93
-10.98
-6.61
-2.46
1.95
6.89
12.26
17.58
22.13
25.16
26.10
24.67
20.89
15.09
7.77
-0.53
-9.26
-17.90
-25.95
-32.93
-38.42
-42.23
-44.46
-45.57
-46.24
-47.20
-48.94
-51.44
-54.06
-55.60
-54.66
-50.09
-41.52
-29.62
-15.89
-2.26
9.59
18.73
25.00
28.90
31.09
32.12
32.23
31.51
30.03
27.91
25.36
22.53
19.43
15.96
11.94
7.27
1.99
-3.72
-9.61
-15.32
-20.53
-24.96
-28.49
-31.24
-33.57
-35.97
-38.86
-42.24
-45.63
-48.12
-48.66
-46.50
-41.36
-33.52
-23.61
-12.37
-0.65
10.61
20.24
26.95
29.71
28.19
23.12
16.22
9.61
5.04
3.24
3.75
5.35
6.68
6.86
5.67
3.28
-0.19
-4.83
-10.89
-18.40
-26.89
-35.26
-42.20
-46.56
-47.80
-46.03
-41.91
-36.32
-30.00
-23.37
-16.52
-9.27
-1.37
7.29
16.43
25.30
32.77
37.58
38.90
36.60
31.48
24.94
18.55
13.44
10.01
7.99
6.77
5.82
4.93
4.12
3.38
2.35
0.26
-3.65
-9.67
-17.20
-24.78
-30.54
-32.88
-31.02
-25.19
-16.42
-6.14
4.25
13.71
21.68
28.15
33.41
37.86
41.65
44.43
45.43
43.80
39.10
31.65
22.46
12.85
3.87
-4.05
-11.04
-17.52
-23.76
-29.78
-35.39
-40.55
-45.35
-50.05
-54.69
-58.90
-61.79
-62.23
-59.19
-52.23
-41.66
-28.55
-14.42
-0.93
10.49
18.92
24.06
26.32
26.65
26.35
26.64
28.28
31.34
35.00
37.90
38.54
35.91
29.92
21.51
12.26
3.84
-2.72
-7.29
-10.59
-13.60
-17.07
-20.99
-24.70
-27.19
-27.62
-25.58
-21.20
-14.92
-7.22
1.44
10.68
20.06
29.02
36.97
43.34
47.76
50.09
50.48
49.30
47.01
44.08
40.88
37.58
34.11
30.15
25.32
19.32
12.10
3.92
-4.77
-13.48
-21.80
-29.36
-35.77
-40.45
-42.67
-41.75
-37.27
-29.33
-18.68
-6.51
5.79
16.90
25.84
32.09
35.57
36.55
35.46
32.73
28.71
23.68
17.89
11.66
5.36
-0.63
-6.04
-10.73
-14.70
-18.06
-20.99
-23.77
-26.85
-30.78
-36.06
-42.77
-50.33
-57.39
-62.18
-63.09
-59.32
-51.28
-40.41
-28.64
-17.67
-8.34
-0.58
6.26
12.75
18.89
23.96
26.93
27.02
24.22
19.39
14.04
9.83
8.02
9.23
13.50
20.38
29.22
39.21
49.45
59.09
67.54
74.71
81.01
87.09
93.23
99.04
103.40
105.16
103.83
100.27
96.52
95.01
97.36
103.43
111.21
117.33
118.26
111.53
96.50
74.38
47.82
19.97
-6.47
-29.77
-49.23
-64.98
-77.48
-87.22
-94.69
-100.35
-104.78
-108.63
-112.28
-115.64
-118.09
-118.62
-116.24
-110.43
-101.07
-88.49
-73.32
-56.08
-37.24
-17.47
2.24
20.46
35.19
44.89
48.68
46.54
39.84
30.71
21.22
12.66
5.16
-2.81
-12.47
-24.35
-38.26
-52.30
-63.98
-71.17
-72.61
-68.03
-58.78
-45.11
-26.74
-3.69
24.38
57.35
94.20
133.50
173.81
212.73
249.87
285.63
312.03
321.05
306.54
266.83
206.34
143.15
85.93
40.23
10.29
-1.46
3.66
22.96
50.92
80.28
103.99
115.75
114.07
101.18
81.02
58.30
36.66
17.18
-1.63
-22.95
-51.32
-88.64
-133.89
-183.62
-232.72
-276.21
-310.91
-335.80
-351.37
-359.20
-359.53
-351.52
-333.98
-305.94
-267.20
-218.72
-162.37
-100.43
-35.66
29.70
93.74
154.76
211.34
262.25
306.08
341.02
364.81
375.02
370.29
351.19
320.70
283.51
244.93
209.27
178.86
154.11
133.94
116.70
100.55
83.70
64.92
44.63
25.92
14.35
15.92
33.64
64.72
100.21
128.05
138.15
126.82
98.04
61.00
25.54
-2.01
-20.18
-31.03
-37.55
-41.63
-43.90
-44.88
-46.04
-49.87
-59.04
-74.96
-97.13
-123.28
-149.87
-173.28
-190.68
-200.73
-203.97
-202.79
-200.77
-201.41
-206.92
-217.30
-230.52
-243.23
-251.99
-254.34
-249.36
-237.49
-220.07
-198.92
-175.86
-152.41
-129.58
-107.83
-87.16
-67.48
-48.93
-32.06
-17.49
-5.55
4.12
12.43
20.35
28.16
35.38
41.06
44.77
47.28
50.24
55.10
61.78
68.04
70.20
64.87
50.60
28.68
2.61
-23.28
-45.41
-61.42
-70.04
-70.97
-64.56
-52.43
-37.44
-23.07
-12.55
-8.03
-9.40
-14.35
-19.44
-21.15
-18.04
-10.78
-1.28
8.31
15.58
19.30
19.20
15.58
9.87
2.47
-6.54
-16.59
-26.82
-37.62
-49.43
-62.96
-79.17
-97.54
-118.96
-144.06
-171.84
-199.94
-226.60
-249.74
-267.89
-280.75
-287.14
-288.78
-288.31
-287.67
-275.08
-243.35
-190.82
-122.43
-60.16
-9.79
28.86
57.49
81.37
101.68
116.38
124.18
125.86
124.30
125.22
130.96
140.72
151.86
161.14
165.76
165.78
163.57
162.30
165.70
173.82
184.23
194.00
200.63
202.40
199.28
192.39
183.49
175.51
170.08
168.00
169.61
174.50
181.35
188.17
192.25
190.46
180.39
160.25
129.96
91.74
49.53
7.83
-29.44
-60.09
-83.88
-101.95
-116.13
-127.69
-136.35
-140.14
-136.18
-122.26
-98.62
-68.82
-39.24
-17.01
-7.36
-11.51
-26.13
-44.72
-60.28
-67.89
-66.17
-57.26
-45.34
-34.58
-27.50
-24.17
-22.50
-19.34
-11.80
1.75
21.25
45.19
71.26
97.22
121.40
142.96
161.68
177.39
189.39
196.06
194.93
183.36
159.62
123.74
77.98
26.49
-25.43
-72.24
-109.03
-132.31
-140.61
-134.81
-118.12
-95.37
-71.98
-52.63
-40.15
-35.10
-35.96
-39.73
-42.88
-42.34
-36.06
-23.87
-7.41
10.34
25.92
36.55
41.11
40.34
36.28
31.65
28.39
27.22
27.43
27.11
23.67
14.71
-0.83
-22.39
-47.68
-74.17
-99.40
-121.06
-136.94
-144.94
-143.55
-132.66
-116.42
-98.44
-83.10
-74.09
-73.00
-78.41
-86.13
-90.65
-87.06
-73.57
-51.44
-24.97
0.73
21.98
36.96
46.35
52.89
60.54
71.43
85.71
100.92
113.36
119.63
117.47
106.48
88.11
68.33
51.06
40.02
37.67
44.08
56.28
68.78
75.49
68.32
44.81
7.63
-36.19
-79.24
-116.59
-146.86
-171.75
-192.46
-208.43
-217.05
-216.05
-204.20
-182.42
-153.08
-118.42
-79.58
-36.64
10.66
61.66
112.84
158.74
193.40
213.09
217.88
211.32
198.56
183.94
169.60
155.30
140.35
124.62
109.88
99.76
98.44
109.14
132.46
165.30
200.80
230.29
245.01
239.44
213.74
174.14
130.60
92.78
66.05
46.78
29.08
6.55
-23.59
-58.66
-92.72
-121.05
-143.17
-162.69
-184.25
-208.49
-231.16
-244.97
-243.45
-224.25
-190.32
-146.61
-101.38
-61.86
-30.72
-6.85
12.75
30.16
45.44
57.36
65.11
70.46
75.14
81.27
89.63
99.03
106.64
109.25
104.66
92.46
73.77
50.60
25.36
-0.70
-26.48
-51.30
-74.54
-95.29
-112.12
-123.47
-128.26
-126.14
-118.19
-106.87
-93.86
-81.86
-73.68
-70.95
-73.39
-79.03
-84.82
-87.79
-85.67
-79.01
-68.09
-53.83
-37.97
-22.81
-10.45
-1.71
4.23
9.42
15.98
24.68
34.20
41.86
44.90
41.82
33.07
20.67
7.31
-4.69
-13.89
-19.87
-22.75
-22.90
-21.02
-18.16
-15.80
-15.44
-18.06
-23.81
-32.05
-41.19
-49.06
-53.35
-52.23
-44.90
-31.60
-13.28
8.67
32.83
58.01
83.29
107.90
131.16
149.94
161.23
163.26
156.40
143.18
127.29
112.02
99.23
89.17
83.24
80.56
80.19
81.43
83.61
85.68
85.99
82.56
73.63
57.08
33.45
5.78
-21.59
-44.45
-60.07
-67.66
-68.13
-63.21
-54.75
-44.30
-32.92
-22.60
-15.73
-14.16
-18.20
-26.64
-37.64
-49.66
-61.88
-74.81
-88.55
-102.32
-114.86
-125.07
-132.72
-138.52
-143.70
-149.17
-153.58
-155.36
-152.83
-144.85
-131.31
-113.15
-92.00
-69.60
-47.30
-25.95
-6.13
11.93
28.22
42.90
56.30
68.83
80.83
92.49
103.64
113.77
122.35
129.05
133.93
137.24
139.22
139.81
138.49
134.36
126.27
113.26
94.95
71.97
46.11
20.32
-1.95
-17.55
-24.60
-23.35
-16.09
-6.72
0.51
2.15
-3.59
-16.64
-35.53
-58.09
-82.20
-106.18
-128.92
-149.71
-168.08
-183.61
-195.96
-204.81
-209.90
-210.94
-207.53
-199.21
-185.64
-166.91
-143.81
-117.75
-90.43
-63.24
-36.67
-10.16
17.74
48.76
84.15
124.13
167.65
212.56
255.92
294.34
324.16
342.06
345.60
333.67
306.87
267.45
219.06
166.18
113.48
64.82
23.04
-10.38
-35.48
-53.56
-66.65
-76.85
-85.67
-93.71
-101.36
-108.35
-113.89
-116.60
-114.41
-104.68
-84.88
-53.61
-11.52
37.61
86.74
127.39
152.21
157.49
144.64
119.55
90.57
69.05
61.50
71.43
99.15
140.91
188.78
232.62
260.38
260.48
228.23
167.09
88.29
6.15
-67.17
-125.31
-169.53
-204.07
-232.21
-255.26
-273.81
-288.13
-299.07
-305.27
-306.73
-303.62
-295.85
-283.06
-265.00
-242.31
-216.34
-188.97
-162.23
-138.00
-116.98
-98.42
-80.66
-61.87
-41.08
-18.36
5.26
28.41
49.88
69.52
88.43
108.33
130.64
155.70
182.52
208.85
231.69
247.79
254.58
250.84
236.82
214.24
185.76
154.46
123.11
93.84
67.80
45.47
26.91
11.95
0.23
-8.80
-15.81
-21.53
-26.64
-31.64
-36.73
-41.83
-46.67
-50.88
-54.13
-56.27
-57.38
-57.75
-57.82
-58.07
-58.87
-60.44
-62.82
-65.89
-69.38
-72.94
-76.07
-78.23
-78.82
-77.27
-73.24
-66.66
-57.80
-47.22
-35.66
-23.84
-12.37
-1.63
8.19
17.06
24.94
31.80
37.57
42.32
46.28
49.83
53.40
57.19
61.13
64.79
67.57
69.02
69.15
68.50
68.10
69.11
72.27
77.54
83.81
89.03
90.72
86.75
76.07
59.23
38.32
16.41
-3.33
-18.51
-28.12
-32.58
-33.44
-32.81
-32.79
-35.03
-40.66
-50.13
-63.27
-79.49
-97.68
-116.51
-134.62
-150.85
-164.39
-175.14
-183.18
-188.73
-192.02
-192.87
-190.91
-185.90
-177.93
-167.52
-156.14
-144.86
-134.11
-123.57
-111.78
-96.73
-76.71
-50.73
-18.85
17.05
55.09
93.37
130.00
163.69
193.52
218.62
238.54
253.73
264.86
274.65
286.77
299.69
310.46
314.62
307.65
287.42
261.93
235.07
209.13
185.18
163.32
141.53
119.64
98.39
79.02
62.49
47.74
33.63
19.12
3.59
-12.34
-27.01
-38.80
-46.62
-50.34
-51.48
-51.35
-50.78
-50.18
-49.35
-47.72
-44.90
-40.78
-35.61
-30.45
-26.05
-22.81
-20.71
-19.30
-17.72
-15.22
-11.30
-5.96
0.12
6.05
10.85
13.62
13.84
11.70
8.06
4.44
2.46
3.22
6.86
12.49
18.38
22.71
24.32
22.97
19.29
14.33
8.99
3.82
-1.00
-5.34
-8.94
-11.41
-12.52
-12.44
-11.80
-11.48
-12.17
-14.09
-16.84
-19.79
-22.34
-24.33
-26.08
-28.20
-31.18
-35.21
-40.06
-45.24
-50.17
-54.43
-57.81
-60.29
-61.99
-63.12
-63.92
-64.59
-65.20
-65.73
-66.01
-65.86
-65.18
-63.97
-62.38
-60.61
-58.95
-57.73
-57.33
-58.01
-59.68
-61.89
-63.79
-64.61
-63.95
-62.13
-60.05
-58.75
-58.81
-59.95
-61.06
-60.71
-57.87
-52.49
-45.55
-38.70
-33.53
-30.88
-30.68
-32.14
-34.21
-36.23
-38.00
-39.62
-41.05
-41.86
-41.28
-38.60
-33.65
-26.94
-19.52
-12.45
-6.40
-1.41
2.87
6.86
10.69
14.13
16.81
18.50
19.27
19.49
19.63
19.93
20.40
20.81
20.89
20.48
19.63
18.53
17.39
16.32
15.26
13.95
12.08
9.46
6.17
2.65
-0.40
-2.19
-2.18
-0.24
3.30
7.76
12.35
16.38
19.36
21.02
21.22
19.93
17.25
13.39
8.72
3.73
-1.09
-5.42
-9.14
-12.44
-15.62
-18.97
-22.60
-26.31
-29.73
-32.46
-34.28
-35.27
-35.80
-36.36
-37.36
-38.88
-40.65
-42.02
-42.26
-40.72
-37.04
-31.14
-23.20
-13.54
-2.61
9.03
20.54
30.95
39.26
44.69
46.83
45.80
42.09
36.39
29.46
22.04
14.81
8.41
3.34
-0.15
-2.10
-2.87
-2.91
-2.65
-2.33
-2.08
-2.06
-2.47
-3.57
-5.45
-7.86
-10.12
-11.32
-10.66
-7.79
-3.07
2.63
8.27
13.01
16.48
18.71
19.93
20.31
19.91
18.82
17.26
15.75
14.92
15.18
16.54
18.41
19.91
20.17
18.68
15.47
11.07
6.28
1.90
-1.49
-3.71
-5.01
-6.03
-7.66
-10.56
-14.82
-19.55
-22.99
-23.02
-17.84
-6.67
9.78
29.33
48.88
65.12
75.34
77.95
72.52
60.12
43.09
24.66
8.16
-3.75
-9.89
-10.79
-8.60
-6.86
-8.78
-16.47
-30.55
-50.38
-74.42
-100.95
-128.15
-154.49
-179.25
-201.30
-219.14
-231.18
-236.23
-233.99
-225.64
-213.60
-201.68
-194.56
-195.15
-203.90
-218.71
-235.87
-251.07
-260.63
-261.88
-245.70
-206.71
-143.98
-63.29
24.07
105.74
173.95
225.71
267.83
308.00
349.71
392.39
432.14
464.50
484.33
486.16
467.22
427.41
368.36
293.13
207.54
119.53
37.77
-32.02
-85.99
-122.82
-144.09
-154.00
-157.87
-157.65
-155.18
-151.36
-146.39
-139.68
-130.36
-117.97
-103.06
-87.04
-71.32
-57.41
-45.96
-36.78
-28.94
-21.45
-13.95
-7.02
-1.70
1.18
1.06
-1.84
-6.61
-11.76
-15.68
-17.08
-15.18
-9.74
-1.04
10.03
22.30
34.54
45.70
55.03
62.06
66.61
68.80
68.90
67.17
63.92
59.49
54.25
48.60
42.96
37.72
33.23
29.68
27.02
25.00
23.31
21.57
19.47
16.79
13.42
9.53
5.63
2.62
1.66
3.81
9.54
18.45
29.27
40.27
49.84
56.93
61.20
62.78
61.98
59.03
54.14
47.57
39.83
31.57
23.48
16.04
9.46
3.76
-1.12
-5.21
-8.53
-11.25
-13.78
-16.86
-21.41
-28.28
-37.91
-49.84
-62.46
-73.24
-79.27
-78.28
-69.43
-53.71
-33.58
-12.15
7.90
24.96
38.55
48.95
56.60
61.71
64.33
64.58
62.95
60.24
57.24
54.42
51.67
48.38
43.83
37.61
29.83
21.17
12.45
4.40
-2.71
-9.11
-15.42
-22.35
-30.43
-39.62
-49.20
-57.75
-63.55
-65.00
-61.18
-52.10
-38.66
-22.36
-4.83
12.44
28.36
42.11
53.08
60.78
64.83
65.16
62.09
56.39
49.21
41.83
35.26
30.03
26.06
22.80
19.60
16.02
11.99
7.69
3.31
-1.28
-6.51
-12.85
-20.60
-29.47
-38.57
-46.60
-52.24
-54.49
-52.90
-47.66
-39.42
-29.12
-17.79
-6.47
3.91
12.56
18.92
22.69
23.93
23.02
20.53
17.05
13.08
8.83
4.31
-0.54
-5.69
-10.84
-15.49
-19.05
-21.17
-21.89
-21.80
-21.83
-23.04
-26.21
-31.62
-38.77
-46.56
-53.47
-57.98
-58.91
-55.74
-48.59
-38.17
-25.49
-11.67
2.25
15.31
26.69
35.70
41.92
45.37
46.49
46.07
45.02
44.10
43.70
43.81
44.07
43.96
42.99
40.79
37.26
32.46
26.58
19.79
12.19
3.74
-5.62
-15.82
-26.39
-36.47
-44.77
-49.99
-51.12
-47.80
-40.39
-29.79
-17.18
-3.69
9.73
22.20
32.88
40.87
45.42
46.14
43.24
37.51
30.14
22.34
14.97
8.40
2.55
-2.83
-7.92
-12.72
-17.08
-20.84
-23.99
-26.73
-29.36
-32.09
-34.96
-37.70
-39.77
-40.54
-39.33
-35.60
-29.01
-19.58
-7.73
5.71
19.60
32.72
44.03
52.82
58.86
62.27
63.40
62.71
60.65
57.59
53.84
49.60
44.92
39.78
34.06
27.69
20.73
13.38
5.95
-1.26
-7.98
-14.09
-19.64
-24.88
-30.21
-36.02
-42.46
-49.28
-55.64
-60.28
-61.86
-59.41
-52.67
-42.14
-28.87
-14.06
1.19
16.10
30.07
42.56
53.00
60.84
65.82
68.10
68.32
67.45
66.44
65.96
66.12
66.53
66.36
64.59
60.33
53.02
42.70
30.03
16.28
3.03
-8.24
-16.59
-21.92
-24.97
-27.02
-29.38
-32.92
-37.75
-43.22
-48.17
-51.29
-51.51
-48.31
-41.79
-32.56
-21.56
-9.75
2.06
13.26
23.34
31.73
37.80
41.04
41.31
38.97
34.85
29.95
25.04
20.47
16.17
11.87
7.40
2.85
-1.56
-5.62
-9.36
-13.05
-16.98
-21.31
-25.86
-30.21
-33.91
-36.67
-38.47
-39.48
-39.83
-39.40
-37.86
-34.83
-30.04
-23.60
-15.84
-7.23
1.86
11.15
20.32
28.85
35.98
40.82
42.65
41.26
37.12
31.23
24.86
19.14
14.84
12.23
11.19
11.36
12.26
13.34
14.01
13.67
11.87
8.46
3.61
-2.29
-8.84
-15.89
-23.53
-31.86
-40.64
-49.04
-55.68
-58.99
-57.79
-51.71
-41.36
-28.14
-13.74
0.20
12.39
21.90
28.21
31.17
31.05
28.62
25.01
21.42
18.77
17.40
16.93
16.54
15.36
12.85
9.03
4.43
-0.16
-4.02
-6.66
-7.96
-8.01
-7.17
-5.93
-4.94
-4.97
-6.85
-11.15
-18.01
-26.95
-36.83
-46.10
-53.16
-56.73
-56.16
-51.57
-43.72
-33.77
-23.02
-12.61
-3.34
4.33
10.32
14.77
17.95
20.16
21.64
22.56
23.05
23.21
23.12
22.86
22.50
22.06
21.51
20.75
19.72
18.36
16.64
14.60
12.25
9.56
6.45
2.84
-1.38
-6.20
-11.57
-17.31
-23.12
-28.48
-32.75
-35.22
-35.22
-32.38
-26.75
-18.76
-9.21
1.03
11.17
20.60
28.84
35.58
40.55
43.68
45.05
45.01
44.02
42.51
40.73
38.76
36.51
33.91
31.01
27.91
24.79
21.78
18.86
15.98
13.00
9.84
6.44
2.79
-1.13
-5.35
-9.84
-14.51
-19.08
-23.17
-26.16
-27.44
-26.50
-23.13
-17.52
-10.28
-2.29
5.53
12.37
17.73
21.36
23.22
23.26
21.27
16.93
9.90
0.16
-11.84
-25.12
-38.42
-50.58
-60.85
-68.98
-75.19
-79.93
-83.79
-87.43
-91.58
-96.95
-104.05
-112.96
-123.17
-133.69
-143.24
-150.60
-154.99
-156.14
-154.33
-150.15
-144.19
-136.77
-127.75
-116.69
-103.03
-86.53
-67.36
-46.21
-24.14
-2.46
17.44
34.27
47.07
55.64
60.62
63.53
66.12
69.77
74.84
80.51
85.15
87.07
85.29
79.82
71.63
62.09
52.48
43.57
35.63
28.49
21.86
15.47
9.20
3.13
-2.52
-7.35
-10.94
-13.01
-13.52
-12.75
-11.28
-9.83
-8.97
-8.99
-9.71
-10.65
-11.26
-11.11
-10.05
-8.15
-5.53
-2.38
0.98
4.06
6.23
6.99
6.23
4.25
1.53
-1.63
-5.37
-10.21
-16.67
-24.84
-34.28
-44.19
-53.96
-63.46
-72.94
-82.48
-91.52
-98.61
-101.76
-99.17
-89.90
-74.21
-53.44
-29.27
-2.96
25.12
55.40
88.66
125.37
165.29
207.34
249.43
288.79
322.23
346.69
359.92
361.27
352.00
335.11
314.44
293.13
273.16
255.06
238.38
222.31
206.21
189.85
173.30
156.84
140.12
122.90
105.15
87.17
69.49
52.71
37.33
23.69
11.84
0.59
-11.35
-24.99
-40.81
-59.02
-80.06
-105.00
-135.32
-172.00
-215.47
-263.55
-311.17
-351.92
-380.32
-394.12
-394.93
-387.24
-368.12
-337.02
-295.84
-249.15
-203.00
-162.71
-131.30
-109.12
-94.50
-84.73
-78.13
-73.70
-70.69
-68.25
-65.36
-60.89
-53.69
-42.60
-28.19
-10.53
9.33
29.24
46.41
58.33
63.64
62.71
57.51
50.84
44.84
40.44
37.60
35.83
34.72
34.10
33.94
34.14
34.25
33.67
31.84
28.82
25.25
21.97
19.59
18.05
16.56
13.99
9.32
2.20
-6.63
-15.19
-20.69
-20.43
-12.75
2.23
22.44
44.45
64.36
79.01
86.77
87.75
83.37
75.59
66.16
56.27
46.58
37.42
29.08
21.91
16.22
12.06
9.13
6.80
4.30
1.03
-3.31
-8.71
-14.99
-21.98
-29.69
-38.18
-47.43
-57.05
-66.21
-73.76
-78.50
-79.52
-76.50
-69.78
-60.22
-48.99
-37.31
-26.21
-16.45
-8.52
-2.72
0.85
2.20
1.54
-0.75
-4.07
-7.74
-11.19
-14.06
-16.28
-17.96
-19.28
-20.36
-21.22
-21.80
-22.11
-22.36
-22.97
-24.53
-27.60
-32.48
-39.02
-46.46
-53.32
-57.89
-58.74
-55.13
-47.27
-36.21
-23.55
-11.03
0.00
9.08
16.17
21.44
25.07
27.17
27.85
27.33
25.57
22.90
20.46
19.22
19.73
21.88
25.01
28.36
31.31
32.99
33.61
34.99
38.65
45.25
54.26
64.32
74.25
83.68
92.33
102.05
116.85
139.89
172.55
213.92
261.24
311.33
361.13
407.02
436.93
441.90
416.90
363.77
291.24
211.18
134.01
74.06
29.36
-5.31
-32.66
-53.30
-66.49
-71.49
-72.03
-70.88
-70.89
-75.87
-87.22
-103.31
-121.30
-137.73
-149.63
-155.47
-155.03
-149.83
-143.29
-137.45
-132.40
-127.27
-120.91
-112.65
-102.82
-92.04
-81.33
-72.02
-64.11
-56.57
-48.29
-38.55
-27.20
-14.69
-1.58
11.37
22.93
32.14
38.22
40.42
38.23
31.62
21.23
8.45
-4.86
-16.83
-25.78
-30.62
-31.15
-28.08
-22.75
-16.77
-11.55
-8.16
-7.13
-8.54
-12.09
-17.32
-23.64
-30.57
-37.70
-44.70
-51.25
-56.97
-61.44
-64.25
-65.15
-64.14
-61.53
-58.04
-54.70
-52.67
-53.00
-56.11
-61.46
-67.51
-71.99
-72.64
-67.97
-57.78
-43.09
-25.75
-7.74
9.28
24.14
36.04
44.49
49.25
50.41
48.51
44.39
38.97
32.93
26.55
19.77
12.39
4.35
-4.09
-12.36
-19.76
-25.69
-29.91
-32.60
-34.36
-36.03
-38.45
-42.07
-46.71
-51.50
-55.04
-55.82
-52.70
-45.29
-34.13
-20.42
-5.74
8.44
21.00
31.29
39.02
44.24
47.15
48.19
47.93
47.01
45.99
45.11
44.26
43.01
40.87
37.57
33.26
28.52
24.20
21.09
19.64
19.84
21.18
22.75
23.43
22.14
18.26
11.84
3.86
-3.98
-9.71
-11.73
-9.28
-2.70
6.81
17.69
28.53
38.40
46.82
53.61
58.62
61.63
62.41
60.81
56.90
51.04
43.77
35.77
27.69
20.07
13.24
7.30
2.24
-2.02
-5.50
-8.14
-9.82
-10.49
-10.33
-9.73
-9.31
-9.72
-11.49
-14.88
-19.77
-25.61
-31.53
-36.42
-39.21
-39.08
-35.64
-29.03
-19.82
-8.86
2.96
14.86
26.24
36.67
45.84
53.45
59.19
62.78
64.02
62.84
59.37
53.98
47.23
39.68
31.84
24.06
16.46
9.07
1.92
-4.88
-11.16
-16.71
-21.45
-25.44
-28.89
-32.10
-35.38
-38.99
-43.07
-47.54
-52.02
-55.75
-57.72
-56.88
-52.47
-44.29
-32.75
-18.83
-3.75
11.26
25.10
36.84
45.79
51.41
53.50
52.24
48.21
42.25
35.16
27.61
20.00
12.54
5.47
-0.93
-6.30
-10.35
-13.05
-14.62
-15.48
-16.11
-16.84
-17.87
-19.18
-20.73
-22.42
-24.29
-26.40
-28.98
-32.33
-36.81
-42.67
-49.82
-57.73
-65.37
-71.37
-74.36
-73.37
-68.10
-58.90
-46.68
-32.56
-17.70
-2.99
10.83
23.24
33.82
42.22
48.20
51.67
52.71
51.69
49.16
45.73
41.91
37.98
33.93
29.66
25.06
20.19
15.27
10.56
6.13
1.85
-2.65
-7.76
-13.66
-20.26
-27.11
-33.70
-39.54
-44.43
-48.49
-52.11
-55.80
-60.01
-64.96
-70.51
-76.09
-80.75
-83.32
-82.66
-77.91
-68.78
-55.59
-39.24
-21.00
-2.23
15.85
32.26
46.28
57.42
65.34
69.96
71.48
70.40
67.42
63.28
58.63
53.85
49.15
44.56
40.11
35.89
32.10
28.87
26.18
23.90
21.74
19.37
16.55
13.19
9.35
5.22
0.99
-3.22
-7.44
-11.92
-17.13
-23.59
-31.71
-41.46
-52.20
-62.66
-71.32
-76.78
-78.24
-75.71
-69.84
-61.65
-52.20
-42.36
-32.77
-24.00
-16.52
-10.79
-7.06
-5.27
-5.02
-5.67
-6.53
-7.00
-6.70
-5.47
-3.40
-0.69
2.35
5.29
7.72
9.26
9.72
9.18
7.98
6.60
5.45
4.66
4.03
3.07
1.33
-1.46
-5.23
-9.57
-13.85
-17.34
-19.30
-19.13
-16.47
-11.50
-4.97
1.91
7.89
12.16
14.74
16.34
17.93
20.20
23.11
26.03
28.10
28.80
28.20
26.84
25.36
24.10
22.92
21.40
19.08
15.75
11.55
6.88
2.25
-1.95
-5.54
-8.62
-11.45
-14.42
-17.89
-22.04
-26.76
-31.63
-35.89
-38.66
-39.13
-36.78
-31.47
-23.48
-13.45
-2.28
8.97
19.22
27.52
33.20
35.97
36.03
33.93
30.47
26.44
22.48
18.97
16.03
13.53
11.20
8.72
5.83
2.42
-1.49
-5.72
-10.03
-14.16
-17.97
-21.43
-24.71
-28.10
-31.89
-36.24
-41.02
-45.74
-49.63
-51.80
-51.45
-48.10
-41.75
-32.83
-22.13
-10.62
0.75
11.16
20.05
27.11
32.24
35.47
37.00
37.06
36.01
34.25
32.17
30.04
27.99
25.99
23.89
21.59
19.05
16.32
13.49
10.63
7.77
4.94
2.11
-0.81
-3.97
-7.64
-12.08
-17.39
-23.31
-29.20
-34.05
-36.81
-36.75
-33.61
-27.70
-19.75
-10.63
-1.18
7.97
16.34
23.54
29.27
33.29
35.55
36.11
35.27
33.44
31.08
28.58
26.20
23.96
21.73
19.29
16.48
13.26
9.79
6.35
3.20
0.45
-1.95
-4.24
-6.72
-9.67
-13.30
-17.66
-22.53
-27.43
-31.63
-34.27
-34.62
-32.30
-27.39
-20.45
-12.28
-3.79
4.32
11.54
17.63
22.48
26.01
28.14
28.83
28.14
26.28
23.59
20.52
17.44
14.56
11.85
9.19
6.40
3.39
0.19
-3.15
-6.56
-10.08
-13.79
-17.76
-21.95
-26.25
-30.39
-34.01
-36.71
-38.03
-37.62
-35.24
-30.87
-24.68
-17.05
-8.47
0.48
9.22
17.20
23.95
29.14
32.59
34.36
34.66
33.82
32.23
30.24
28.07
25.82
23.44
20.84
17.98
14.98
12.07
9.48
7.39
5.75
4.31
2.71
0.56
-2.40
-6.25
-10.79
-15.58
-20.00
-23.30
-24.88
-24.45
-22.14
-18.49
-14.21
-9.89
-5.85
-2.03
1.72
5.49
9.10
12.14
14.15
14.83
14.23
12.68
10.70
8.74
7.01
5.47
3.92
2.17
0.19
-1.87
-3.78
-5.34
-6.55
-7.59
-8.83
-10.70
-13.55
-17.47
-22.17
-26.92
-30.64
-32.16
-30.56
-25.50
-17.48
-7.62
2.62
11.87
19.22
24.28
27.15
28.14
27.67
26.11
23.79
21.06
18.21
15.42
12.74
10.11
7.45
4.84
2.55
0.89
0.04
-0.23
-0.54
-1.75
-4.54
-9.10
-14.97
-21.23
-26.90
-31.27
-34.13
-35.54
-35.61
-34.24
-31.21
-26.28
-19.57
-11.67
-3.49
3.97
10.02
14.42
17.38
19.29
20.59
21.59
22.49
23.43
24.59
26.25
28.73
32.29
36.98
42.56
48.48
53.99
58.35
60.98
61.66
60.43
57.49
53.06
47.31
40.46
33.02
25.82
19.93
16.33
15.49
17.13
20.23
23.42
25.50
25.80
24.27
21.24
17.07
11.88
5.54
-2.12
-11.05
-20.87
-31.01
-40.94
-50.41
-59.49
-68.48
-77.63
-86.92
-96.09
-104.74
-112.64
-119.71
-126.05
-131.71
-136.62
-140.62
-143.70
-146.23
-148.84
-152.03
-155.68
-158.70
-159.26
-155.47
-146.17
-131.49
-112.85
-92.37
-72.08
-53.25
-36.19
-20.55
-5.69
8.87
23.30
37.45
50.95
63.14
73.02
79.17
80.13
74.99
63.95
48.67
31.89
16.57
5.00
-1.76
-3.73
-1.61
3.86
11.94
21.77
32.08
41.21
47.41
49.48
47.15
41.22
33.22
24.92
17.73
12.35
8.73
6.39
4.93
4.51
5.88
10.05
17.68
28.66
42.12
56.83
71.77
86.39
100.50
113.85
126.00
136.47
145.18
152.95
161.55
173.21
189.70
211.65
238.13
267.03
295.76
321.94
343.82
360.21
370.11
372.33
365.51
348.38
320.35
281.84
234.27
179.72
120.43
58.51
-4.14
-65.70
-124.49
-178.93
-227.74
-269.96
-304.93
-332.14
-351.23
-361.99
-364.60
-359.75
-348.57
-332.37
-312.52
-290.15
-266.26
-241.75
-217.60
-194.71
-173.79
-155.19
-138.86
-124.54
-111.89
-100.72
-91.06
-82.99
-76.51
-71.47
-67.52
-64.30
-61.50
-58.93
-56.57
-54.53
-53.01
-52.21
-52.32
-53.31
-54.88
-56.45
-57.19
-56.17
-52.65
-46.20
-36.82
-24.96
-11.43
2.74
16.44
28.61
38.50
45.72
50.36
52.84
53.76
53.62
52.77
51.30
49.22
46.52
43.34
39.85
36.24
32.63
28.99
25.17
20.96
16.11
10.36
3.56
-4.21
-12.43
-20.09
-25.80
-28.15
-26.19
-19.82
-9.89
2.08
14.36
25.48
34.55
41.21
45.51
47.64
47.81
46.21
43.15
39.08
34.50
29.97
25.80
22.12
18.88
15.90
13.04
10.19
7.25
4.05
0.26
-4.49
-10.42
-17.36
-24.62
-31.03
-35.29
-36.30
-33.52
-27.10
-17.78
-6.71
4.89
15.91
25.57
33.37
39.14
42.90
44.81
45.13
44.16
42.22
39.63
36.66
33.50
30.23
26.86
23.35
19.74
16.06
12.35
8.62
4.74
0.44
-4.63
-10.81
-18.16
-26.34
-34.48
-41.31
-45.51
-46.08
-42.64
-35.49
-25.48
-13.75
-1.46
10.28
20.53
28.45
33.53
35.69
35.44
33.80
32.06
31.34
32.30
34.92
38.63
42.49
45.51
46.86
45.97
42.42
35.79
25.62
11.59
-6.13
-26.49
-47.59
-67.11
-82.94
-93.84
-99.65
-100.88
-98.25
-92.12
-82.49
-69.22
-52.49
-32.94
-11.49
11.16
34.80
59.66
85.94
113.09
139.44
162.29
178.59
186.03
183.89
173.36
157.08
138.19
119.18
101.31
84.67
68.67
52.74
36.86
21.54
7.69
-3.79
-12.24
-17.32
-19.12
-18.09
-15.15
-11.42
-8.05
-5.78
-4.61
-3.58
-0.91
5.54
17.51
35.65
59.10
85.53
111.85
135.01
153.04
165.27
172.15
174.53
172.94
167.53
157.88
143.48
123.61
97.80
66.34
30.85
-5.14
-36.53
-57.58
-64.26
-55.61
-34.58
-6.67
22.46
48.54
69.81
86.08
97.67
103.49
101.12
87.22
59.46
18.30
-32.89
-87.69
-138.58
-178.73
-205.16
-216.07
-213.46
-202.74
-190.52
-182.18
-178.32
-179.63
-182.50
-184.26
-184.27
-183.76
-184.24
-183.27
-179.28
-170.37
-155.35
-133.71
-106.52
-75.58
-42.93
-9.81
25.68
63.73
103.83
144.42
183.74
219.86
251.19
276.21
293.54
303.85
305.85
298.65
282.32
258.65
230.74
202.57
177.79
158.35
144.72
134.15
122.20
104.85
80.62
51.36
21.62
-3.30
-19.47
-25.49
-23.09
-15.72
-6.56
2.17
9.00
12.68
11.76
4.76
-9.06
-29.63
-56.38
-87.24
-119.41
-150.22
-178.08
-202.82
-225.66
-248.27
-272.83
-302.33
-337.53
-376.38
-414.24
-445.47
-465.62
-473.39
-470.57
-461.87
-454.42
-452.77
-457.60
-466.07
-473.52
-475.60
-469.68
-454.25
-413.61
-338.90
-229.51
-95.57
45.21
174.84
280.98
355.88
404.31
431.98
441.50
435.50
417.51
392.28
364.34
338.22
316.77
301.29
290.62
281.08
269.51
253.77
233.09
207.85
179.51
150.10
122.44
98.65
79.24
63.96
51.99
42.33
34.33
27.79
22.49
18.23
14.01
8.22
-0.36
-12.24
-27.08
-43.98
-61.78
-79.44
-96.12
-111.53
-125.85
-139.35
-152.27
-164.57
-175.83
-185.26
-192.13
-196.22
-198.26
-199.82
-202.76
-208.57
-217.75
-229.56
-242.15
-253.07
-259.84
-260.64
-254.55
-241.70
-223.11
-200.22
-174.60
-147.54
-120.02
-92.68
-66.00
-40.34
-15.87
7.50
30.26
53.06
76.66
101.75
128.92
158.46
189.94
221.57
249.94
270.57
279.08
272.84
252.11
220.10
181.93
143.01
107.54
78.02
55.51
40.25
32.11
30.67
35.08
44.00
55.85
69.19
83.15
97.54
112.75
129.26
146.84
163.97
177.72
184.63
182.31
170.90
153.55
135.21
120.27
110.05
101.95
90.78
71.80
43.62
9.31
-24.89
-52.57
-69.92
-77.10
-77.52
-75.78
-75.62
-78.82
-85.53
-95.23
-107.81
-123.82
-143.90
-167.91
-194.34
-220.45
-243.08
-259.62
-268.52
-269.34
-262.35
-248.05
-226.97
-199.76
-167.33
-130.94
-92.02
-52.03
-12.49
25.00
58.62
86.55
107.28
120.00
124.83
122.82
115.72
105.69
95.02
85.69
78.90
74.71
71.98
68.99
64.22
57.29
49.21
42.03
37.84
37.82
41.69
48.00
54.87
60.68
64.56
66.30
66.03
63.96
60.41
55.89
51.33
47.94
46.94
49.18
54.86
63.47
73.92
84.86
94.92
102.99
108.38
110.88
110.68
108.21
103.95
98.25
91.25
82.99
73.51
62.96
51.70
40.16
28.71
17.59
6.93
-3.14
-12.36
-20.26
-26.34
-30.39
-32.61
-33.66
-34.30
-35.12
-36.21
-37.20
-37.55
-36.88
-35.24
-33.02
-30.84
-29.23
-28.59
-29.16
-31.06
-34.37
-39.02
-44.84
-51.46
-58.39
-65.01
-70.58
-74.29
-75.31
-72.98
-66.96
-57.46
-45.19
-31.30
-17.04
-3.55
8.34
18.17
25.69
30.91
33.94
35.05
34.70
33.51
32.16
31.27
31.20
32.05
33.62
35.55
37.47
39.09
40.16
40.51
39.85
37.81
34.07
28.52
21.50
13.85
6.84
1.88
0.18
2.42
8.59
17.99
29.43
41.44
52.60
61.73
68.02
71.18
71.38
69.25
65.60
61.22
56.68
52.18
47.66
42.91
37.86
32.59
27.37
22.50
18.11
14.10
10.16
5.90
0.95
-4.94
-11.86
-19.72
-28.15
-36.42
-43.46
-48.03
-48.99
-45.74
-38.43
-28.03
-16.13
-4.57
4.95
11.18
13.44
11.56
5.83
-3.20
-14.72
-27.68
-40.85
-52.89
-62.62
-69.32
-72.95
-74.29
-74.73
-75.83
-78.83
-84.24
-91.80
-100.57
-109.25
-116.41
-120.63
-120.61
-115.27
-104.07
-87.26
-65.96
-42.01
-17.53
5.57
26.00
43.16
56.98
67.62
75.30
80.18
82.42
82.28
80.12
76.31
71.21
65.15
58.41
51.33
44.30
37.76
32.03
27.25
23.25
19.58
15.65
10.98
5.40
-0.75
-6.63
-11.07
-12.85
-11.04
-5.19
4.58
17.69
33.23
50.12
67.21
83.34
97.51
108.92
117.10
121.93
123.61
122.48
119.02
113.84
107.71
101.61
96.50
93.04
91.30
90.65
89.92
87.87
83.67
77.09
68.51
58.53
47.64
36.00
23.58
10.42
-3.07
-16.09
-27.74
-37.16
-43.71
-46.88
-46.02
-40.37
-29.44
-13.58
5.37
24.00
38.15
44.21
40.57
28.36
11.04
-6.91
-21.56
-30.70
-34.13
-33.13
-29.52
-24.95
-20.62
-17.38
-16.04
-17.42
-22.15
-30.35
-41.35
-53.73
-65.52
-74.59
-79.20
-78.27
-71.59
-59.75
-43.97
-25.81
-7.04
10.63
25.63
36.67
42.94
44.20
40.90
34.09
25.23
15.89
7.45
0.91
-3.26
-5.02
-4.66
-2.64
0.52
4.29
8.08
11.38
13.64
14.37
13.21
10.03
4.99
-1.36
-8.04
-13.85
-17.47
-17.88
-14.60
-7.80
1.70
12.69
23.89
34.16
42.65
48.79
52.30
53.16
51.63
48.22
43.62
38.54
33.54
28.94
24.80
20.96
17.27
13.66
10.16
6.92
4.03
1.49
-0.92
-3.60
-7.08
-11.80
-17.95
-25.25
-32.94
-39.89
-44.80
-46.51
-44.36
-38.31
-28.95
-17.30
-4.56
8.11
19.82
29.88
37.86
43.48
46.61
47.35
46.01
43.09
39.14
34.70
30.11
25.52
20.93
16.31
11.65
7.10
2.81
-1.03
-4.39
-7.32
-10.09
-13.00
-16.39
-20.51
-25.42
-30.96
-36.61
-41.58
-44.91
-45.73
-43.48
-38.14
-30.19
-20.51
-10.04
0.37
10.07
18.63
25.62
30.65
33.38
33.70
31.85
28.46
24.34
20.26
16.72
13.82
11.38
9.06
6.60
3.92
1.06
-1.82
-4.65
-7.38
-10.09
-12.88
-15.89
-19.24
-23.06
-27.38
-32.06
-36.68
-40.50
-42.64
-42.30
-39.01
-32.90
-24.56
-14.89
-4.82
4.89
13.69
21.13
26.87
30.57
32.08
31.48
29.19
25.79
21.92
18.11
14.68
11.72
9.22
7.03
5.00
2.99
0.92
-1.21
-3.27
-5.16
-6.79
-8.30
-9.94
-12.09
-15.10
-19.12
-24.03
-29.34
-34.38
-38.30
-40.32
-39.90
-36.86
-31.40
-24.09
-15.68
-6.95
1.43
8.93
15.15
19.80
22.76
24.04
23.87
22.66
20.90
19.02
17.30
15.79
14.35
12.74
10.75
8.28
5.38
2.15
-1.25
-4.77
-8.41
-12.23
-16.26
-20.50
-24.93
-29.52
-34.25
-39.08
-43.82
-48.09
-51.31
-52.86
-52.26
-49.32
-44.30
-37.77
-30.47
-23.13
-16.30
-10.36
-5.51
-1.95
0.20
0.90
0.29
-1.29
-3.40
-5.61
-7.64
-9.38
-10.87
-12.16
-13.26
-14.11
-14.59
-14.54
-13.85
-12.49
-10.51
-8.09
-5.55
-3.25
-1.61
-0.98
-1.59
-3.57
-6.82
-11.07
-15.76
-20.18
-23.49
-24.95
-24.10
-20.90
-15.68
-9.12
-1.99
4.99
11.22
16.33
20.10
22.46
23.46
23.31
22.27
20.69
18.94
17.32
16.07
15.33
15.09
15.23
15.53
15.76
15.71
15.27
14.39
13.05
11.26
8.97
6.12
2.67
-1.32
-5.68
-10.08
-14.15
-17.47
-19.68
-20.56
-19.99
-18.01
-14.75
-10.50
-5.65
-0.65
4.02
7.93
10.77
12.43
12.88
12.19
10.50
7.97
4.88
1.60
-1.47
-4.05
-6.10
-7.80
-9.42
-11.24
-13.29
-15.48
-17.64
-19.64
-21.46
-23.16
-24.85
-26.67
-28.89
-31.91
-36.20
-42.11
-49.54
-57.82
-65.73
-71.74
-74.57
-73.47
-68.50
-60.38
-50.28
-39.41
-28.77
-19.08
-10.77
-4.08
0.88
4.12
5.84
6.42
6.32
6.02
5.86
5.95
6.30
6.83
7.54
8.41
9.34
10.01
9.93
8.51
5.29
0.13
-6.67
-14.55
-22.78
-30.66
-37.62
-43.18
-46.90
-48.44
-47.56
-44.29
-38.89
-31.90
-23.94
-15.63
-7.41
0.38
7.50
13.73
18.76
22.30
24.10
24.10
22.44
19.52
15.84
11.92
8.11
4.58
1.33
-1.73
-4.59
-7.18
-9.33
-10.84
-11.62
-11.77
-11.67
-11.87
-13.03
-15.65
-19.85
-25.26
-31.01
-35.93
-38.88
-39.00
-36.00
-30.10
-21.90
-12.18
-1.76
8.63
18.29
26.56
32.84
36.72
38.08
37.15
34.50
30.85
26.88
23.11
19.75
16.82
14.15
11.49
8.62
5.33
1.56
-2.61
-6.94
-11.08
-14.72
-17.78
-20.43
-23.10
-26.29
-30.25
-34.85
-39.51
-43.29
-45.12
-44.13
-39.86
-32.37
-22.25
-10.47
1.87
13.65
24.03
32.50
38.96
43.60
46.88
49.32
51.45
53.61
55.90
58.05
59.50
59.52
57.45
52.91
45.89
36.77
26.20
14.91
3.65
-6.99
-16.71
-25.53
-33.85
-42.35
-51.73
-62.39
-74.12
-86.02
-96.72
-104.74
-108.92
-108.81
-104.69
-97.53
-88.65
-79.40
-70.82
-63.48
-57.41
-52.21
-47.09
-41.08
-33.19
-22.67
-9.22
6.75
24.09
41.14
56.19
67.97
75.92
80.20
81.27
79.63
75.60
69.37
61.42
52.68
44.41
37.83
33.66
31.84
31.70
32.26
32.68
32.52
31.73
30.51
29.21
28.22
28.01
29.08
31.86
36.51
42.86
50.33
58.09
65.27
71.09
74.90
76.25
74.92
71.03
65.05
57.70
49.77
41.87
34.34
27.21
20.38
13.82
7.60
1.85
-3.36
-8.08
-12.38
-16.17
-19.04
-20.33
-19.35
-15.69
-9.46
-1.32
7.76
16.74
24.79
31.32
36.03
38.75
39.46
38.26
35.41
31.35
26.61
21.74
17.13
12.96
9.14
5.42
1.48
-2.87
-7.58
-12.39
-17.01
-21.27
-25.29
-29.45
-34.27
-40.14
-47.17
-55.06
-63.13
-70.43
-75.87
-78.50
-77.60
-72.95
-64.82
-54.01
-41.73
-29.32
-18.04
-8.80
-2.08
2.04
3.80
3.66
2.16
-0.09
-2.55
-4.72
-6.27
-7.07
-7.17
-6.84
-6.38
-6.04
-5.96
-6.15
-6.58
-7.25
-8.29
-9.94
-12.49
-16.12
-20.72
-25.74
-30.21
-32.98
-33.07
-30.01
-23.94
-15.66
-6.20
3.42
12.48
20.66
27.89
34.31
40.04
45.21
49.82
53.79
56.91
58.82
59.15
57.63
54.24
49.27
43.27
36.89
30.70
25.11
20.20
15.84
11.64
7.10
1.74
-4.81
-12.59
-21.22
-29.89
-37.52
-42.92
-45.16
-43.78
-38.90
-31.15
-21.56
-11.24
-1.24
7.63
14.82
20.03
23.22
24.48
24.08
22.43
19.99
17.22
14.47
11.89
9.47
7.08
4.62
2.08
-0.46
-2.82
-4.90
-6.74
-8.51
-10.58
-13.35
-17.14
-22.09
-27.98
-34.20
-39.79
-43.68
-44.87
-42.81
-37.44
-29.31
-19.29
-8.44
2.26
12.04
20.36
26.87
31.34
33.67
33.94
32.39
29.44
25.61
21.39
17.05
12.69
8.24
3.66
-1.04
-5.67
-10.02
-13.93
-17.31
-20.22
-22.79
-25.18
-27.63
-30.36
-33.56
-37.20
-40.89
-43.89
-45.23
-44.01
-39.71
-32.37
-22.61
-11.40
0.16
11.09
20.64
28.32
33.86
37.16
38.31
37.56
35.31
32.09
28.41
24.75
21.36
18.29
15.42
12.58
9.66
6.67
3.69
0.87
-1.72
-4.05
-6.26
-8.53
-11.16
-14.46
-18.65
-23.75
-29.39
-34.82
-39.00
-40.88
-39.75
-35.40
-28.25
-19.11
-8.95
1.31
10.94
19.32
25.98
30.57
32.92
33.13
31.68
29.26
26.62
24.35
22.76
21.77
21.08
20.27
19.00
17.14
14.80
12.25
9.81
7.69
5.86
4.04
1.80
-1.35
-5.74
-11.35
-17.79
-24.27
-29.75
-33.23
-33.99
-31.76
-26.77
-19.61
-11.02
-1.80
7.36
15.79
22.89
28.13
31.18
32.02
30.97
28.63
25.65
22.66
20.06
17.98
16.33
14.88
13.35
11.55
9.38
6.85
4.05
1.12
-1.93
-5.14
-8.67
-12.72
-17.45
-22.97
-29.18
-35.71
-41.89
-46.83
-49.60
-49.52
-46.35
-40.38
-32.31
-23.10
-13.70
-4.94
2.63
8.64
12.94
15.49
16.44
16.07
14.79
13.08
11.40
10.06
9.15
8.57
8.03
7.24
6.01
4.30
2.26
0.10
-2.01
-4.01
-6.01
-8.15
-10.61
-13.55
-16.99
-20.85
-24.84
-28.42
-30.95
-31.73
-30.25
-26.38
-20.33
-12.67
-4.15
4.46
12.44
19.20
24.26
27.33
28.36
27.58
25.49
22.71
19.89
17.49
15.80
14.82
14.34
14.02
13.49
12.52
11.02
9.06
6.85
4.60
2.43
0.34
-1.86
-4.41
-7.56
-11.41
-15.80
-20.28
-24.20
-26.83
-27.61
-26.19
-22.62
-17.19
-10.42
-2.93
4.62
11.58
17.37
21.51
23.80
24.24
23.12
20.93
18.18
15.37
12.83
10.68
8.93
7.44
6.07
4.70
3.29
1.90
0.57
-0.69
-1.94
-3.42
-5.41
-8.18
-11.89
-16.52
-21.81
-27.30
-32.34
-36.15
-38.01
-37.39
-34.12
-28.50
-21.17
-13.02
-4.93
2.38
8.42
12.94
15.91
17.43
17.69
16.99
15.67
14.04
12.36
10.78
9.30
7.92
6.65
5.56
4.83
4.58
4.86
5.51
6.22
6.60
6.30
5.06
2.76
-0.60
-4.89
-9.79
-14.66
-18.66
-20.84
-20.45
-17.21
-11.48
-4.11
3.77
11.09
17.00
20.99
22.77
22.27
19.60
15.10
9.36
3.10
-2.96
-8.29
-12.71
-16.35
-19.53
-22.59
-25.72
-28.96
-32.22
-35.43
-38.61
-41.89
-45.47
-49.44
-53.71
-57.98
-61.77
-64.53
-65.72
-64.89
-61.81
-56.45
-49.12
-40.40
-31.12
-22.15
-14.24
-7.86
-3.15
-0.05
1.60
1.91
1.00
-0.97
-3.76
-7.03
-10.48
-13.93
-17.36
-20.92
-24.75
-28.95
-33.46
-38.17
-42.93
-47.67
-52.36
-57.01
-61.54
-65.71
-69.09
-71.17
-71.45
-69.53
-65.18
-58.27
-48.64
-36.03
-20.16
-0.95
21.14
44.97
68.70
90.20
107.55
119.55
126.03
127.71
125.81
121.52
115.57
108.20
99.32
88.99
77.70
66.42
56.24
47.96
41.61
36.45
31.13
24.23
14.81
2.73
-11.15
-25.21
-37.39
-45.73
-48.85
-46.32
-38.72
-27.44
-14.21
-0.69
11.89
22.78
31.56
37.98
41.90
43.25
42.18
39.15
34.91
30.36
26.36
23.48
21.94
21.57
21.89
22.36
22.48
21.91
20.47
18.08
14.67
10.20
4.68
-1.68
-8.37
-14.51
-19.00
-20.77
-19.11
-13.98
-6.07
3.43
13.20
22.19
29.92
36.48
42.27
47.65
52.58
56.59
58.88
58.68
55.53
49.53
41.37
32.27
23.80
17.68
15.39
17.81
24.78
34.92
45.82
54.62
58.72
56.46
47.58
33.17
15.37
-3.03
-19.39
-31.67
-39.04
-41.97
-42.03
-41.27
-41.46
-43.56
-47.57
-52.84
-58.57
-64.21
-69.62
-74.85
-79.94
-84.65
-88.52
-90.84
-90.96
-88.36
-82.98
-75.27
-66.26
-57.47
-50.48
-46.55
-46.16
-48.92
-53.68
-58.94
-63.30
-65.80
-66.05
-64.14
-60.48
-55.54
-49.79
-43.62
-37.27
-30.83
-24.27
-17.59
-10.89
-4.54
0.90
4.82
6.78
6.70
4.92
1.98
-1.50
-5.13
-8.84
-12.78
-17.19
-22.17
-27.54
-32.79
-37.29
-40.55
-42.58
-44.02
-46.09
-50.18
-57.31
-67.63
-80.15
-92.80
-102.81
-107.30
-103.90
-91.29
-69.56
-40.38
-6.77
27.38
58.13
82.28
98.07
105.44
105.77
101.32
94.52
87.40
81.26
76.68
73.69
71.96
70.93
70.00
68.57
66.20
62.70
58.15
52.88
47.32
41.77
36.30
30.67
24.46
17.29
9.02
-0.01
-8.95
-16.56
-21.47
-22.54
-19.07
-11.06
0.84
15.48
31.47
47.49
62.57
76.11
87.86
97.63
105.15
109.98
111.60
109.72
104.40
96.18
85.86
74.22
61.80
48.89
35.63
22.31
9.47
-2.14
-11.82
-19.14
-24.16
-27.34
-29.41
-31.10
-33.07
-35.77
-39.49
-44.33
-50.14
-56.41
-62.22
-66.37
-67.58
-64.92
-58.02
-47.22
-33.40
-17.73
-1.31
14.95
30.44
44.68
57.22
67.55
75.22
79.93
81.69
80.87
78.13
74.28
70.09
66.15
62.74
59.82
57.06
53.97
50.00
44.72
37.87
29.44
19.63
8.77
-2.88
-15.14
-28.00
-41.44
-55.36
-69.35
-82.59
-93.89
-101.94
-105.60
-104.33
-98.26
-88.22
-75.44
-61.11
-46.10
-30.83
-15.45
-0.06
14.96
28.89
40.84
50.07
56.19
59.37
60.14
59.24
57.36
55.00
52.52
50.15
48.08
46.40
45.15
44.19
43.29
42.19
40.64
38.48
35.66
32.29
28.57
24.83
21.42
18.56
16.28
14.40
12.70
11.14
10.04
9.99
11.70
15.61
21.70
29.47
38.04
46.51
54.14
60.40
64.90
67.38
67.67
65.80
62.16
57.40
52.29
47.41
43.01
38.96
34.99
30.87
26.55
22.17
17.79
13.32
8.42
2.73
-3.92
-11.37
-19.14
-26.70
-33.66
-39.93
-45.64
-50.99
-56.08
-60.79
-64.93
-68.35
-71.00
-72.95
-74.25
-74.80
-74.34
-72.49
-69.01
-63.84
-57.19
-49.40
-40.88
-31.95
-22.87
-13.89
-5.30
2.55
9.34
14.82
18.96
21.92
23.94
25.37
26.44
27.34
28.12
28.75
29.17
29.36
29.28
28.94
28.34
27.48
26.35
24.94
23.34
21.65
20.04
18.68
17.60
16.67
15.57
13.84
11.06
7.03
1.98
-3.42
-8.23
-11.50
-12.56
-11.23
-7.81
-2.96
2.46
7.56
11.46
13.44
13.07
10.35
5.78
0.29
-5.06
-9.27
-11.77
-12.39
-11.38
-9.16
-6.25
-3.16
-0.39
1.62
2.53
2.09
0.27
-2.81
-6.84
-11.51
-16.51
-21.64
-26.89
-32.30
-37.98
-43.94
-50.02
-55.86
-60.89
-64.46
-65.94
-64.89
-61.20
-55.17
-47.40
-38.63
-29.56
-20.70
-12.30
-4.43
2.84
9.39
15.07
19.77
23.56
26.69
29.60
32.70
36.25
40.26
44.41
48.21
51.11
52.66
52.63
51.04
48.23
44.75
41.31
38.64
37.26
37.26
38.02
38.09
35.53
28.42
15.82
-1.69
-21.82
-41.18
-56.37
-65.08
-66.70
-62.24
-53.60
-42.79
-31.30
-19.97
-9.37
-0.08
7.15
11.55
12.71
10.84
6.79
1.82
-2.84
-6.33
-8.38
-9.19
-9.24
-9.07
-9.11
-9.64
-10.84
-12.82
-15.67
-19.37
-23.83
-28.77
-33.84
-38.65
-42.92
-46.56
-49.67
-52.46
-55.05
-57.34
-59.08
-59.95
-59.74
-58.43
-56.19
-53.24
-49.81
-46.03
-42.05
-38.06
-34.35
-31.23
-28.87
-27.26
-26.16
-25.26
-24.29
-23.13
-21.87
-20.67
-19.77
-19.35
-19.47
-20.11
-21.18
-22.59
-24.28
-26.27
-28.64
-31.44
-34.70
-38.32
-42.16
-45.94
-49.34
-51.96
-53.38
-53.13
-50.85
-46.34
-39.65
-31.15
-21.39
-11.04
-0.78
8.81
17.26
24.17
29.22
32.29
33.43
33.05
31.80
30.43
29.60
29.69
30.69
32.29
34.07
35.56
36.42
36.43
35.43
33.28
29.94
25.38
19.61
12.58
4.18
-5.69
-16.94
-29.08
-41.13
-51.71
-59.39
-63.06
-62.25
-57.21
-48.76
-38.00
-26.01
-13.74
-1.96
8.63
17.42
23.93
27.93
29.55
29.30
27.84
25.90
23.97
22.24
20.59
18.80
16.65
14.09
11.20
8.14
5.05
1.87
-1.57
-5.59
-10.48
-16.42
-23.37
-30.98
-38.56
-45.10
-49.43
-50.36
-47.07
-39.26
-27.41
-12.64
3.45
19.21
33.33
45.00
53.91
60.05
63.46
64.08
61.83
56.75
49.14
39.54
28.69
17.25
5.72
-5.58
-16.52
-26.94
-36.71
-45.64
-53.61
-60.61
-66.78
-72.39
-77.69
-82.83
-87.61
-91.48
-93.60
-93.05
-89.20
-81.85
-71.40
-58.68
-44.73
-30.58
-17.11
-5.02
5.18
13.13
18.62
21.62
22.37
21.25
18.74
15.34
11.46
7.40
3.35
-0.53
-4.10
-7.12
-9.39
-10.76
-11.34
-11.45
-11.62
-12.43
-14.28
-17.20
-20.76
-24.15
-26.28
-26.11
-22.93
-16.55
-7.39
3.63
15.39
26.83
37.17
45.91
52.69
57.12
58.67
56.77
51.05
41.57
29.01
14.66
0.09
-13.07
-23.53
-30.44
-33.49
-32.85
-29.11
-23.16
-16.03
-8.74
-2.14
3.16
6.76
8.33
7.57
4.33
-1.27
-8.56
-16.27
-22.76
-26.43
-26.13
-21.53
-13.06
-1.72
11.18
24.21
35.95
45.07
50.49
51.65
48.73
42.74
35.32
28.27
23.02
20.23
19.65
20.34
21.17
21.17
19.92
17.44
14.04
10.06
5.63
0.68
-5.01
-11.63
-19.23
-27.58
-36.17
-44.16
-50.45
-53.91
-53.61
-49.08
-40.52
-28.71
-14.88
-0.41
13.42
25.59
35.37
42.42
46.76
48.79
49.27
49.10
49.10
49.74
51.03
52.58
53.86
54.47
54.25
53.33
51.90
50.12
47.95
45.24
41.66
36.86
30.52
22.46
12.74
1.77
-9.64
-20.33
-28.99
-34.47
-36.03
-33.51
-27.31
-18.18
-7.02
5.35
18.26
31.20
43.64
55.01
64.74
72.33
77.51
80.43
81.46
81.05
79.47
76.69
72.40
66.33
58.44
49.07
38.85
28.36
17.90
7.23
-4.29
-17.50
-33.00
-50.83
-70.24
-89.67
-107.00
-119.96
-126.65
-126.05
-118.16
-104.00
-85.25
-63.72
-41.08
-18.68
2.34
20.92
36.01
46.78
52.87
54.64
53.15
49.93
46.44
43.66
41.85
40.67
39.48
37.66
34.88
31.11
26.49
21.21
15.45
9.37
3.18
-2.85
-8.46
-13.34
-17.23
-19.81
-20.72
-19.47
-15.60
-8.82
0.91
13.21
27.38
42.41
57.18
70.59
81.68
89.78
94.54
95.87
93.97
89.14
81.87
72.73
62.41
51.64
41.09
31.31
22.69
15.38
9.41
4.74
1.30
-0.97
-2.29
-3.03
-3.80
-5.34
-8.38
-13.41
-20.48
-29.12
-38.32
-46.75
-53.07
-56.21
-55.66
-51.57
-44.64
-35.93
-26.52
-17.27
-8.76
-1.29
4.97
9.88
13.33
15.26
15.76
15.06
13.51
11.46
9.10
6.41
3.19
-0.75
-5.47
-10.85
-16.62
-22.46
-28.12
-33.43
-38.36
-42.93
-47.15
-51.07
-54.69
-57.89
-60.38
-61.67
-61.15
-58.21
-52.48
-43.99
-33.14
-20.71
-7.60
5.27
17.19
27.63
36.33
43.13
48.07
51.23
52.83
53.19
52.65
51.57
50.21
48.66
46.82
44.48
41.38
37.37
32.49
26.92
21.00
15.03
9.19
3.46
-2.40
-8.67
-15.54
-22.94
-30.42
-37.18
-42.28
-44.91
-44.56
-41.19
-35.21
-27.30
-18.22
-8.65
0.96
10.23
18.94
26.85
33.74
39.52
44.20
47.92
50.89
53.30
55.17
56.40
56.86
56.45
55.14
52.96
49.89
45.83
40.62
34.15
26.36
17.38
7.41
-3.27
-14.26
-25.03
-34.87
-42.93
-48.38
-50.72
-49.87
-46.28
-40.77
-34.33
-27.91
-22.25
-17.84
-14.95
-13.62
-13.69
-14.76
-16.28
-17.63
-18.32
-18.06
-16.94
-15.35
-13.86
-13.06
-13.41
-15.11
-18.12
-22.29
-27.44
-33.44
-40.19
-47.58
-55.34
-63.06
-70.10
-75.69
-79.00
-79.28
-76.09
-69.33
-59.38
-47.01
-33.24
-19.15
-5.70
6.37
16.61
24.82
30.95
35.13
37.64
38.85
39.25
39.28
39.33
39.56
39.96
40.36
40.52
40.26
39.45
38.03
35.91
33.04
29.33
24.76
19.38
13.34
6.92
0.53
-5.19
-9.52
-11.68
-11.10
-7.68
-1.87
5.38
12.88
19.46
24.30
26.95
27.37
25.79
22.59
18.27
13.39
8.57
4.39
1.29
-0.56
-1.31
-1.39
-1.35
-1.72
-2.81
-4.68
-7.20
-10.14
-13.34
-16.80
-20.76
-25.59
-31.57
-38.67
-46.36
-53.59
-59.05
-61.53
-60.31
-55.40
-47.45
-37.49
-26.63
-15.80
-5.71
3.12
10.36
15.76
19.27
21.05
21.45
21.04
20.43
20.19
20.60
21.65
22.97
24.01
24.26
23.41
21.45
18.49
14.63
9.81
3.82
-3.55
-12.30
-22.09
-32.23
-41.84
-49.94
-55.65
-58.25
-57.35
-52.91
-45.27
-35.07
-23.14
-10.33
2.65
15.28
27.14
37.88
47.16
54.71
60.37
64.18
66.28
66.90
66.15
64.09
60.66
55.87
49.83
42.83
35.28
27.58
19.96
12.42
4.77
-3.33
-12.03
-21.20
-30.28
-38.41
-44.60
-48.11
-48.68
-46.55
-42.47
-37.40
-32.36
-28.21
-25.63
-25.07
-26.77
-30.68
-36.37
-43.13
-49.94
-55.81
-59.89
-61.70
-61.17
-58.53
-54.23
-48.74
-42.48
-35.75
-28.87
-22.16
-16.08
-11.19
-8.04
-7.03
-8.12
-10.73
-13.76
-15.85
-15.73
-12.66
-6.61
1.80
11.45
21.17
29.96
37.15
42.46
45.96
47.95
48.89
49.34
49.78
50.60
51.95
53.87
56.24
58.91
61.68
64.32
66.58
68.16
68.76
68.09
65.84
61.68
55.35
46.79
36.39
25.05
14.09
4.94
-1.35
-4.49
-5.03
-4.19
-3.53
-4.45
-7.97
-14.51
-23.95
-35.70
-48.88
-62.55
-75.89
-88.29
-99.35
-108.78
-116.23
-121.38
-123.95
-123.96
-121.76
-118.00
-113.33
-108.24
-102.92
-97.32
-91.40
-85.16
-78.71
-72.10
-65.30
-58.11
-50.35
-41.97
-33.09
-24.00
-14.96
-6.13
2.51
10.93
18.86
25.50
29.65
30.04
25.98
17.90
7.43
-3.09
-11.40
-16.26
-17.79
-17.15
-15.92
-15.42
-16.33
-18.90
-23.27
-29.56
-37.64
-46.87
-55.94
-63.22
-67.28
-67.11
-62.01
-50.99
-32.46
-4.35
34.87
84.93
142.91
203.42
259.98
306.96
341.05
361.70
370.42
369.34
360.15
343.65
320.18
290.30
255.13
216.15
174.80
132.26
89.41
47.21
6.85
-30.40
-63.33
-91.16
-113.83
-131.81
-145.67
-156.00
-163.41
-168.50
-171.98
-174.09
-174.50
-172.59
-167.86
-159.74
-148.19
-133.74
-117.45
-101.09
-86.18
-73.89
-64.89
-59.12
-54.93
-49.69
-40.57
-25.53
-4.32
21.98
51.21
80.79
106.15
124.10
133.41
135.19
136.90
143.25
156.31
176.44
200.39
224.66
246.81
264.76
276.40
275.46
257.22
220.62
168.74
111.38
53.27
-2.98
-55.95
-104.51
-146.83
-181.13
-205.86
-220.33
-225.11
-222.34
-214.04
-202.05
-187.89
-172.71
-157.17
-141.55
-125.97
-110.79
-96.95
-84.91
-74.85
-66.84
-60.93
-57.14
-55.39
-55.38
-56.55
-58.18
-58.86
-57.09
-51.96
-43.77
-34.06
-25.14
-19.19
-17.43
-19.76
-24.58
-29.63
-32.87
-33.17
-30.29
-24.63
-16.78
-7.34
2.98
13.29
22.47
29.39
33.33
34.26
32.93
30.49
28.07
26.32
25.28
24.60
23.76
22.41
20.44
18.02
15.42
13.03
11.26
10.61
11.58
14.64
20.07
27.90
37.75
48.94
60.61
71.88
82.00
90.46
96.97
101.41
103.88
104.59
103.90
102.21
99.80
96.77
92.97
88.09
81.90
74.39
65.83
56.77
47.85
39.69
32.55
26.28
20.30
13.72
5.72
-4.04
-15.21
-26.72
-37.06
-44.79
-48.93
-49.25
-46.24
-40.84
-34.14
-27.16
-20.67
-15.21
-11.15
-8.68
-7.88
-8.67
-10.85
-14.10
-18.10
-22.62
-27.61
-33.15
-39.33
-46.08
-53.06
-59.66
-65.19
-69.09
-71.12
-71.39
-70.35
-68.75
-67.46
-67.28
-68.57
-71.01
-73.45
-74.22
-71.78
-65.37
-55.42
-43.38
-31.08
-19.97
-10.69
-3.15
3.00
7.94
11.46
13.21
13.15
11.77
9.95
8.53
7.87
7.64
7.03
5.28
2.08
-2.14
-6.49
-9.97
-11.96
-12.40
-11.78
-10.88
-10.51
-11.30
-13.57
-17.40
-22.49
-28.26
-33.82
-38.14
-40.31
-39.75
-36.30
-30.22
-22.12
-12.77
-2.95
6.54
15.00
21.82
26.58
29.12
29.59
28.38
26.02
23.09
20.04
17.23
14.88
13.11
11.94
11.26
10.88
10.50
9.83
8.60
6.72
4.16
0.98
-2.72
-6.84
-11.18
-15.41
-18.97
-21.23
-21.51
-19.41
-14.92
-8.47
-0.82
7.14
14.59
21.01
26.17
30.11
32.95
34.84
35.79
35.78
34.79
32.88
30.23
27.09
23.71
20.31
17.06
14.08
11.43
9.13
7.14
5.33
3.46
1.27
-1.52
-5.12
-9.57
-14.60
-19.66
-23.86
-26.27
-26.11
-23.10
-17.48
-9.94
-1.41
7.27
15.48
22.82
29.01
33.80
36.97
38.35
38.00
36.19
33.35
29.99
26.52
23.21
20.15
17.29
14.56
11.84
9.11
6.34
3.58
0.84
-1.88
-4.69
-7.75
-11.20
-15.07
-19.17
-23.07
-26.13
-27.68
-27.09
-24.00
-18.35
-10.40
-0.71
9.95
20.70
30.64
38.95
45.09
48.89
50.57
50.62
49.58
47.79
45.29
41.89
37.34
31.66
25.18
18.49
12.20
6.72
2.15
-1.65
-5.07
-8.58
-12.61
-17.47
-23.22
-29.61
-35.99
-41.48
-45.11
-46.24
-45.00
-41.84
-37.47
-32.52
-27.24
-21.62
-15.54
-8.89
-1.84
4.96
11.00
15.85
19.36
21.72
23.62
25.69
29.30
36.09
47.07
62.42
80.79
99.57
115.72
126.65
131.01
128.90
123.24
115.06
104.65
91.37
74.24
52.43
25.65
-5.60
-39.78
-74.41
-106.55
-131.21
-143.67
-141.07
-123.91
-96.75
-67.57
-45.50
-37.89
-48.12
-74.34
-110.90
-150.67
-187.57
-217.88
-240.61
-256.36
-266.17
-270.65
-269.55
-262.49
-249.59
-231.99
-211.34
-189.40
-167.05
-143.96
-118.82
-90.02
-56.48
-17.74
24.96
71.10
119.89
170.30
220.52
267.74
308.23
337.96
353.41
352.23
333.83
299.38
251.99
196.49
138.60
83.59
34.87
-6.66
-42.18
-73.43
-101.34
-125.19
-142.92
-152.41
-152.86
-145.40
-132.75
-118.06
-103.69
-90.72
-79.11
-68.18
-57.31
-45.99
-33.85
-20.25
-4.36
14.83
37.96
65.08
95.61
128.42
162.00
194.47
223.60
246.97
262.57
269.49
268.49
261.83
252.55
243.29
235.53
229.44
224.52
220.39
217.21
215.67
216.41
219.59
224.78
231.51
239.83
250.59
264.84
282.59
301.79
318.05
325.79
320.14
298.99
263.88
219.48
171.85
126.23
85.63
50.61
20.07
-7.56
-33.48
-58.20
-81.96
-105.00
-127.77
-150.79
-174.48
-198.98
-224.30
-250.79
-279.46
-311.80
-348.80
-389.74
-431.18
-467.38
-492.01
-500.57
-492.39
-471.03
-442.87
-414.75
-391.79
-376.25
-367.80
-364.42
-363.25
-361.24
-355.58
-344.04
-325.63
-301.16
-273.09
-244.81
-219.24
-197.56
-178.57
-159.11
-135.45
-105.13
-68.50
-29.04
7.56
35.17
49.44
49.23
37.06
18.32
-0.24
-12.31
-13.51
-2.28
19.94
49.26
80.33
107.75
127.30
136.98
137.44
131.98
125.51
123.06
127.77
139.35
153.76
164.52
165.25
152.42
127.00
94.08
60.93
34.20
17.82
12.16
14.69
21.42
28.47
33.21
34.86
34.37
34.00
36.53
44.60
60.13
83.95
115.59
153.09
193.06
231.00
262.17
282.78
291.14
288.22
277.33
263.03
249.52
239.37
232.74
227.60
220.64
208.75
190.42
166.40
139.25
111.97
86.33
61.69
35.12
2.61
-38.92
-90.12
-148.60
-209.26
-265.49
-310.24
-336.85
-339.66
-315.20
-263.78
-190.90
-107.68
-28.98
30.44
60.61
59.53
33.19
-7.39
-50.47
-87.10
-112.29
-124.18
-122.71
-108.66
-83.81
-51.74
-17.75
12.80
37.05
56.25
75.08
98.03
126.58
157.40
183.37
197.01
194.04
175.55
147.32
117.08
89.98
67.14
45.97
21.90
-9.33
-50.09
-100.30
-157.45
-217.21
-275.21
-327.11
-369.24
-399.49
-417.94
-426.66
-429.06
-428.64
-418.83
-395.81
-359.95
-316.32
-272.72
-236.00
-209.32
-191.70
-179.17
-170.09
-160.27
-146.22
-125.43
-96.25
-58.22
-12.83
36.33
84.63
126.94
159.71
183.32
202.62
224.70
255.13
294.68
338.40
377.53
403.22
410.00
397.26
368.82
330.47
287.39
242.62
197.32
152.17
108.68
69.83
39.10
18.99
9.67
8.78
12.38
16.70
19.62
21.11
22.79
26.46
33.15
42.64
53.77
65.15
75.77
85.24
93.57
100.85
106.72
110.46
111.27
108.77
103.31
95.93
87.96
80.51
74.08
68.43
62.78
56.25
48.14
38.12
26.24
12.82
-1.50
-15.77
-28.68
-38.72
-44.59
-45.55
-41.73
-34.08
-23.93
-12.50
-0.48
11.94
24.78
37.89
50.59
61.81
70.34
75.27
76.35
74.08
69.52
63.89
58.21
52.95
48.03
42.80
36.34
27.62
15.78
0.31
-18.79
-40.85
-64.68
-88.60
-110.75
-129.35
-142.99
-150.84
-152.76
-149.24
-141.25
-129.92
-116.36
-101.46
-85.90
-70.29
-55.26
-41.60
-30.06
-21.29
-15.63
-13.07
-13.34
-15.97
-20.31
-25.58
-30.95
-35.68
-39.22
-41.37
-42.26
-42.28
-41.98
-41.97
-42.88
-45.31
-49.68
-56.10
-64.18
-72.97
-81.14
-87.24
-90.11
-89.12
-84.38
-76.65
-67.15
-57.31
-48.55
-42.04
-38.49
-37.92
-39.58
-42.06
-43.66
-42.84
-38.63
-30.94
-20.48
-8.57
3.31
13.87
22.25
28.18
31.84
33.66
34.10
33.50
31.93
29.33
25.68
21.23
16.64
12.95
11.35
12.83
17.83
25.95
35.98
46.16
54.65
60.04
61.69
59.71
54.89
48.28
40.95
33.76
27.28
21.79
17.24
13.34
9.51
5.03
-0.84
-8.53
-18.03
-28.79
-39.77
-49.70
-57.42
-62.17
-63.66
-62.18
-58.26
-52.52
-45.39
-37.11
-27.74
-17.41
-6.47
4.42
14.47
23.01
29.71
34.75
38.70
42.21
45.77
49.59
53.59
57.58
61.28
64.50
66.99
68.51
68.83
67.83
65.52
62.07
57.72
52.77
47.52
42.30
37.42
33.15
29.61
26.78
24.52
22.74
21.49
21.15
22.19
25.05
29.84
36.27
43.67
51.23
58.18
63.99
68.33
71.08
72.25
71.95
70.37
67.68
64.07
59.65
54.50
48.67
42.30
35.57
28.76
22.13
15.92
10.27
5.25
0.84
-3.11
-6.94
-11.01
-15.69
-21.05
-26.81
-32.31
-36.75
-39.40
-39.92
-38.43
-35.44
-31.63
-27.57
-23.66
-20.06
-16.77
-13.74
-10.87
-8.07
-5.21
-2.23
0.78
3.58
5.76
6.87
6.53
4.50
0.76
-4.55
-11.11
-18.51
-26.24
-33.82
-40.80
-46.90
-51.94
-55.79
-58.27
-59.02
-57.55
-53.39
-46.29
-36.47
-24.66
-11.94
0.47
11.53
20.52
27.11
31.23
32.97
32.57
30.45
27.15
23.32
19.59
16.44
14.14
12.72
12.05
11.87
11.79
11.33
9.95
7.19
2.76
-3.41
-11.14
-20.08
-29.74
-39.49
-48.54
-55.95
-60.77
-62.26
-60.11
-54.53
-46.23
-36.22
-25.63
-15.44
-6.43
0.85
6.17
9.46
10.90
10.80
9.58
7.66
5.39
2.97
0.54
-1.82
-4.06
-6.12
-7.99
-9.77
-11.65
-13.93
-16.92
-20.77
-25.46
-30.69
-35.88
-40.25
-42.86
-42.81
-39.44
-32.58
-22.61
-10.55
2.21
14.19
24.16
31.37
35.61
37.14
36.47
34.17
30.73
26.55
21.92
17.04
12.11
7.27
2.62
-1.74
-5.78
-9.52
-13.04
-16.44
-19.95
-23.73
-27.99
-32.73
-37.73
-42.41
-45.95
-47.41
-46.06
-41.63
-34.45
-25.42
-15.77
-6.68
1.01
6.92
11.16
14.05
15.93
17.07
17.52
17.29
16.36
14.79
12.62
9.96
6.83
3.29
-0.64
-4.83
-9.16
-13.49
-17.84
-22.28
-26.96
-31.89
-36.79
-41.06
-43.89
-44.45
-42.22
-37.11
-29.53
-20.21
-10.04
0.15
9.72
18.13
24.94
29.77
32.34
32.59
30.81
27.56
23.55
19.46
15.77
12.65
10.06
7.80
5.67
3.47
1.05
-1.71
-4.89
-8.47
-12.42
-16.53
-20.51
-23.84
-25.81
-25.60
-22.58
-16.48
-7.64
3.05
14.42
25.30
34.92
42.86
49.09
53.66
56.61
58.00
57.90
56.55
54.30
51.54
48.61
45.66
42.72
39.76
36.81
33.95
31.28
28.80
26.31
23.45
19.82
15.26
10.06
5.04
1.39
0.29
2.59
8.45
17.35
28.17
39.53
50.08
58.69
64.54
67.14
66.25
61.79
53.86
42.78
29.16
13.97
-1.61
-16.48
-29.90
-41.74
-52.42
-62.71
-73.29
-84.52
-96.38
-108.63
-120.98
-133.12
-144.63
-154.71
-162.17
-165.61
-163.78
-156.04
-142.52
-124.12
-102.19
-78.21
-53.61
-29.66
-7.52
11.76
27.31
38.60
45.57
48.70
48.83
46.93
43.80
39.93
35.54
30.70
25.52
20.21
15.02
10.14
5.52
0.92
-4.03
-9.69
-16.22
-23.51
-31.07
-38.15
-43.75
-46.90
-46.80
-43.12
-36.03
-26.22
-14.70
-2.60
8.99
19.16
27.25
32.88
36.01
36.91
36.13
34.29
31.99
29.62
27.34
25.17
23.07
20.98
18.85
16.62
14.18
11.43
8.29
4.67
0.49
-4.37
-10.05
-16.58
-23.70
-30.79
-36.85
-40.70
-41.35
-38.26
-31.59
-22.10
-10.97
0.52
11.27
20.47
27.67
32.71
35.66
36.75
36.37
35.04
33.29
31.54
30.04
28.81
27.75
26.67
25.48
24.17
22.82
21.44
19.98
18.23
15.89
12.69
8.47
3.40
-1.94
-6.61
-9.51
-9.65
-6.49
-0.11
8.79
19.08
29.54
39.08
46.98
52.80
56.38
57.74
57.05
54.66
51.01
46.66
42.11
37.71
33.64
29.95
26.59
23.54
20.80
18.44
16.50
14.99
13.83
12.85
11.74
10.12
7.60
3.96
-0.67
-5.71
-10.16
-12.88
-12.86
-9.62
-3.29
5.36
15.20
25.05
33.89
41.03
46.10
48.98
49.72
48.46
45.46
41.05
35.59
29.45
22.96
16.33
9.74
3.33
-2.76
-8.32
-13.16
-17.15
-20.27
-22.63
-24.45
-26.04
-27.71
-29.63
-31.74
-33.67
-34.78
-34.34
-31.76
-26.82
-19.74
-11.16
-1.96
6.88
14.46
20.08
23.35
24.27
23.15
20.55
17.05
13.15
9.19
5.42
2.08
-0.53
-2.14
-2.57
-1.87
-0.27
1.87
4.08
5.89
6.74
6.12
3.62
-0.85
-6.94
-13.85
-20.45
-25.62
-28.50
