1560725672.00
64.000000
-0.00
-0.00
-0.00
-0.00
-0.00
-0.00
-0.00
-0.00
-0.00
-0.00
0.00
0.01
0.01
-0.00
-0.03
-0.05
-0.05
0.00
0.13
0.36
0.66
1.01
1.37
1.72
2.06
2.40
2.79
3.24
3.80
4.42
5.06
5.66
6.20
6.68
7.15
7.68
8.31
9.14
10.09
11.04
11.88
12.56
13.14
13.76
14.65
15.96
17.91
20.32
22.90
25.38
27.58
29.57
31.68
34.32
37.81
42.54
48.15
54.10
59.83
64.97
69.58
74.14
79.34
85.71
93.76
103.00
112.62
121.73
129.77
136.75
143.30
150.75
157.77
166.64
177.95
191.79
206.97
220.57
228.25
225.36
208.53
176.87
132.76
80.05
23.07
-34.95
-92.44
-149.15
-205.21
-260.33
-313.70
-363.86
-409.89
-451.05
-486.76
-516.09
-537.64
-549.65
-550.39
-538.78
-514.62
-479.14
-434.44
-383.11
-327.77
-270.64
-213.42
-157.40
-103.67
-53.14
-6.81
34.45
70.04
99.75
123.80
142.70
157.10
167.59
174.66
178.63
179.82
178.60
175.44
170.86
165.29
159.02
152.10
144.52
136.23
127.37
118.26
109.34
100.99
93.37
86.31
79.41
72.21
64.45
56.22
47.99
40.35
33.77
28.36
23.87
19.77
15.54
10.78
5.27
-1.08
-8.03
-14.81
-20.00
-21.75
-18.48
-9.70
3.40
18.24
31.70
41.34
46.21
46.92
44.94
41.71
38.13
34.47
30.76
27.20
24.17
22.07
20.94
20.39
19.77
18.47
16.19
13.11
9.92
7.62
7.17
9.02
12.82
17.33
20.84
21.88
19.88
15.45
10.03
5.21
1.96
0.37
-0.23
-0.69
-1.49
-2.61
-3.60
-4.02
-3.73
-2.95
-2.08
-1.52
-1.49
-1.92
-2.57
-3.16
-3.50
-3.55
-3.43
-3.32
-3.38
-3.63
-4.00
-4.33
-4.45
-4.27
-3.76
-2.94
-1.87
-0.64
0.57
1.63
2.41
2.93
3.31
3.80
4.61
5.85
7.44
9.19
10.90
12.40
13.61
14.50
15.06
15.25
14.96
14.11
12.67
10.68
8.25
5.64
2.96
0.34
-2.12
-4.39
-6.46
-8.31
-9.89
-11.15
-12.02
-12.51
-12.68
-12.67
-12.56
-12.40
-12.16
-11.77
-11.19
-10.45
-9.66
-8.92
-8.29
-7.77
-7.29
-6.82
-6.34
-5.89
-5.51
-5.17
-4.84
-4.46
-4.02
-3.55
-3.02
-2.39
-1.57
-0.51
0.74
1.99
3.01
3.64
3.84
3.70
3.38
2.98
2.56
2.11
1.63
1.14
0.68
0.27
-0.08
-0.36
-0.55
-0.58
-0.40
-0.04
0.40
0.77
0.95
0.88
0.60
0.15
-0.44
-1.09
-1.79
-2.55
-3.41
-4.37
-5.44
-6.58
-7.70
-8.68
-9.40
-9.80
-9.92
-9.89
-9.83
-9.83
-9.84
-9.74
-9.35
-8.51
-7.17
-5.35
-3.17
-0.80
1.56
3.72
5.54
6.95
7.91
8.40
8.41
7.98
7.17
6.15
5.09
4.24
3.75
3.68
3.99
4.53
5.11
5.58
5.81
5.77
5.46
4.93
4.26
3.54
2.87
2.30
1.83
1.41
0.97
0.40
-0.33
-1.17
-2.00
-2.64
-2.97
-2.98
-2.83
-2.78
-3.10
-3.86
-4.93
-5.98
-6.63
-6.56
-5.70
-4.13
-2.07
0.23
2.54
4.66
6.40
7.60
8.19
8.18
7.68
6.84
5.82
4.76
3.78
3.01
2.56
2.51
2.81
3.31
3.81
4.11
4.15
3.95
3.63
3.27
2.91
2.53
2.13
1.69
1.24
0.80
0.36
-0.13
-0.74
-1.47
-2.29
-3.11
-3.87
-4.51
-5.03
-5.51
-6.01
-6.63
-7.40
-8.28
-9.18
-9.93
-10.35
-10.26
-9.56
-8.22
-6.32
-4.01
-1.52
0.92
3.08
4.74
5.72
5.93
5.42
4.37
3.10
1.91
1.06
0.62
0.49
0.49
0.45
0.27
-0.01
-0.28
-0.49
-0.68
-0.96
-1.51
-2.49
-3.97
-5.95
-8.38
-11.19
-14.32
-17.65
-21.06
-24.46
-27.84
-31.37
-35.32
-39.91
-45.18
-50.88
-56.50
-61.41
-65.01
-66.87
-66.79
-64.76
-60.98
-55.78
-49.60
-42.87
-35.84
-28.55
-20.76
-12.26
-3.05
6.42
15.28
22.48
27.11
28.73
27.49
24.09
19.51
14.77
10.76
8.17
7.48
8.97
12.62
18.09
24.75
31.82
38.58
44.58
49.68
53.94
57.42
60.03
61.50
61.57
60.08
57.10
52.83
47.51
41.36
34.59
27.47
20.39
13.78
8.02
3.37
-0.09
-2.35
-3.38
-3.15
-1.71
0.76
3.90
7.21
10.22
12.63
14.31
15.28
15.59
15.23
14.21
12.55
10.44
8.18
6.12
4.52
3.48
2.88
2.53
2.21
1.84
1.42
1.00
0.60
0.21
-0.26
-0.86
-1.59
-2.40
-3.22
-4.01
-4.79
-5.64
-6.67
-7.93
-9.42
-11.01
-12.52
-13.73
-14.56
-15.02
-15.26
-15.48
-15.83
-16.38
-17.10
-17.88
-18.54
-18.88
-18.72
-17.95
-16.54
-14.53
-12.07
-9.31
-6.44
-3.64
-1.08
1.11
2.85
4.12
5.01
5.60
6.01
6.28
6.48
6.65
6.88
7.27
7.87
8.71
9.74
10.90
12.12
13.31
14.39
15.23
15.76
15.94
15.81
15.45
14.95
14.29
13.42
12.27
10.82
9.16
7.47
5.94
4.67
3.63
2.75
1.90
1.07
0.27
-0.46
-1.14
-1.85
-2.66
-3.54
-4.30
-4.64
-4.30
-3.18
-1.40
0.74
2.92
4.86
6.42
7.50
8.06
8.04
7.41
6.24
4.71
3.10
1.66
0.56
-0.17
-0.61
-0.87
-1.02
-1.10
-1.09
-1.01
-0.90
-0.86
-0.98
-1.31
-1.88
-2.61
-3.42
-4.21
-4.89
-5.45
-5.89
-6.29
-6.76
-7.37
-8.16
-9.08
-10.02
-10.88
-11.63
-12.35
-13.20
-14.30
-15.63
-16.95
-17.92
-18.15
-17.42
-15.77
-13.46
-10.93
-8.58
-6.72
-5.45
-4.75
-4.54
-4.74
-5.32
-6.27
-7.63
-9.30
-11.12
-12.82
-14.11
-14.73
-14.63
-13.93
-12.86
-11.72
-10.78
-10.17
-9.87
-9.72
-9.46
-8.86
-7.80
-6.34
-4.66
-3.03
-1.70
-0.80
-0.31
-0.14
-0.06
0.16
0.73
1.79
3.31
5.02
6.48
7.21
6.83
5.31
2.99
0.48
-1.62
-2.93
-3.34
-3.01
-2.18
-1.08
0.15
1.44
2.77
4.06
5.26
6.28
7.11
7.75
8.25
8.64
8.96
9.26
9.60
10.05
10.61
11.29
12.02
12.78
13.55
14.29
14.94
15.46
15.85
16.07
16.06
15.69
14.86
13.50
11.57
9.05
6.08
2.92
-0.01
-2.31
-3.66
-3.87
-3.11
-1.96
-1.24
-1.71
-3.76
-7.23
-11.45
-15.49
-17.94
-17.76
-14.67
-9.27
-2.68
3.93
9.59
13.69
15.92
17.13
18.18
19.46
20.74
21.59
21.82
21.49
20.85
19.87
19.84
21.61
25.10
29.24
32.85
35.38
36.93
38.09
39.24
42.44
49.22
59.69
72.55
86.02
98.88
110.54
121.00
119.69
100.57
65.54
24.23
-13.06
-41.06
-59.44
-70.35
-74.84
-75.73
-72.85
-65.55
-54.13
-40.15
-26.05
-13.27
-3.42
4.22
10.91
19.22
30.58
44.45
58.53
69.13
73.43
70.70
62.64
51.52
40.22
30.35
21.87
13.26
1.46
-16.16
-40.29
-69.33
-100.92
-132.19
-160.52
-183.57
-192.06
-179.50
-147.70
-106.69
-67.87
-38.50
-20.43
-11.82
-9.21
-9.27
-10.88
-14.16
-18.87
-23.54
-26.32
-25.94
-22.15
-15.61
-8.21
-1.65
2.55
4.07
3.97
3.80
4.69
7.04
10.63
14.82
18.34
20.01
19.51
17.58
15.34
13.67
12.93
12.95
13.61
14.29
14.29
13.33
11.62
9.58
7.57
5.82
4.42
3.35
2.43
1.41
0.17
-1.22
-2.59
-3.85
-5.01
-6.13
-7.30
-8.48
-9.50
-10.11
-10.04
-9.16
-7.60
-5.64
-3.61
-1.78
-0.27
0.93
1.93
2.77
3.43
3.82
3.90
3.64
3.15
2.59
2.08
1.72
1.51
1.41
1.41
1.55
1.90
2.50
3.28
4.08
4.64
4.77
4.38
3.54
2.44
1.25
0.13
-0.88
-1.78
-2.60
-3.39
-4.18
-5.01
-5.90
-6.86
-7.84
-8.70
-9.26
-9.31
-8.72
-7.43
-5.50
-3.09
-0.47
2.05
4.19
5.71
6.49
6.54
5.98
5.02
3.86
2.65
1.43
0.21
-0.98
-2.12
-3.10
-3.82
-4.20
-4.22
-4.00
-3.76
-3.70
-3.99
-4.69
-5.79
-7.16
-8.64
-10.03
-11.30
-12.45
-13.42
-14.20
-14.83
-15.43
-16.09
-16.86
-17.83
-19.17
-21.06
-23.23
-25.30
-26.87
-27.64
-27.45
-26.20
-24.04
-21.40
-18.82
-16.00
-12.51
-8.07
-3.00
1.87
5.57
7.49
7.99
8.63
12.59
22.55
39.04
59.95
81.62
100.82
116.17
128.74
135.31
133.93
124.25
108.07
88.21
67.47
48.07
31.32
17.41
5.76
-3.68
-10.56
-14.21
-14.15
-10.47
-4.56
1.08
3.53
1.41
-3.96
-9.93
-14.03
-15.18
-13.82
-11.94
-12.77
-19.34
-33.13
-53.09
-76.36
-99.19
-117.95
-126.79
-117.65
-87.99
-43.87
1.65
35.28
49.59
44.94
27.53
5.81
-13.53
-28.07
-38.32
-45.61
-50.29
-51.70
-49.00
-42.10
-32.56
-21.80
-11.98
-4.46
0.91
5.34
9.96
14.91
19.02
21.09
20.82
18.67
16.04
14.88
16.76
22.18
30.18
38.79
46.13
50.90
52.51
51.16
47.77
43.35
38.90
33.82
27.11
18.02
6.11
-8.54
-24.83
-40.22
-50.93
-52.92
-42.50
-20.75
7.10
33.18
49.83
52.58
41.94
22.70
1.38
-16.69
-29.26
-36.73
-40.84
-43.06
-43.85
-42.82
-39.65
-34.77
-29.45
-25.40
-23.50
-23.79
-24.64
-24.34
-21.60
-16.27
-9.26
-2.15
3.51
6.93
8.32
8.63
8.95
10.02
11.91
14.15
15.95
16.65
16.08
14.53
12.62
10.96
9.95
9.72
10.09
10.71
11.18
11.20
10.63
9.53
8.01
6.31
4.65
3.23
2.16
1.46
1.06
0.91
0.93
1.07
1.33
1.72
2.22
2.79
3.27
3.53
3.49
3.19
2.73
2.22
1.72
1.18
0.53
-0.26
-1.11
-1.88
-2.47
-2.88
-3.21
-3.59
-4.07
-4.62
-5.17
-5.69
-6.27
-7.05
-8.06
-9.16
-10.04
-10.30
-9.66
-8.09
-5.77
-3.08
-0.42
1.91
3.70
4.89
5.49
5.60
5.36
4.94
4.50
4.11
3.74
3.34
2.86
2.34
1.88
1.64
1.72
2.13
2.77
3.48
4.11
4.55
4.76
4.76
4.59
4.28
3.88
3.48
3.11
2.85
2.68
2.53
2.35
2.07
1.68
1.23
0.79
0.44
0.17
-0.10
-0.50
-1.18
-2.18
-3.45
-4.86
-6.17
-7.15
-7.59
-7.35
-6.41
-4.87
-2.92
-0.86
1.00
2.42
3.23
3.40
2.99
2.08
0.79
-0.74
-2.36
-3.88
-5.13
-6.02
-6.57
-6.85
-6.96
-7.00
-6.99
-6.99
-7.02
-7.18
-7.57
-8.27
-9.30
-10.62
-12.12
-13.66
-15.06
-16.17
-16.79
-16.79
-16.03
-14.51
-12.28
-9.54
-6.52
-3.43
-0.44
2.30
4.71
6.68
8.12
9.02
9.41
9.41
9.21
8.97
8.78
8.62
8.37
7.90
7.10
5.89
4.27
2.22
-0.25
-3.08
-6.16
-9.22
-11.94
-13.97
-15.08
-15.16
-14.28
-12.59
-10.26
-7.48
-4.36
-1.02
2.38
5.62
8.51
10.92
12.79
14.17
15.11
15.68
15.87
15.63
14.95
13.85
12.40
10.74
8.98
7.20
5.41
3.61
1.86
0.27
-0.98
-1.67
-1.67
-0.95
0.39
2.17
4.17
6.15
7.90
9.25
10.06
10.31
10.06
9.48
8.77
8.07
7.43
6.83
6.24
5.73
5.39
5.35
5.64
6.11
6.58
6.81
6.72
6.35
5.80
5.20
4.54
3.77
2.82
1.67
0.40
-0.85
-1.98
-2.90
-3.64
-4.26
-4.79
-5.27
-5.70
-6.09
-6.45
-6.86
-7.41
-8.15
-9.04
-9.92
-10.57
-10.71
-10.16
-8.87
-6.97
-4.68
-2.28
-0.06
1.78
3.11
3.89
4.15
3.99
3.53
2.92
2.29
1.76
1.39
1.23
1.29
1.56
2.01
2.57
3.20
3.83
4.38
4.77
4.90
4.76
4.34
3.71
2.89
1.90
0.71
-0.64
-2.02
-3.21
-3.97
-4.21
-4.02
-3.70
-3.60
-4.02
-5.03
-6.48
-8.05
-9.38
-10.14
-10.10
-9.21
-7.56
-5.41
-3.08
-0.88
0.99
2.45
3.50
4.16
4.43
4.27
3.72
2.87
1.93
1.07
0.47
0.16
0.12
0.28
0.58
0.97
1.38
1.75
2.01
2.14
2.13
2.05
1.92
1.77
1.56
1.26
0.88
0.46
0.09
-0.18
-0.33
-0.47
-0.73
-1.22
-1.99
-2.91
-3.76
-4.24
-4.08
-3.14
-1.46
0.74
3.18
5.51
7.47
8.87
9.63
9.77
9.38
8.58
7.53
6.39
5.28
4.31
3.48
2.71
1.90
0.93
-0.21
-1.45
-2.66
-3.67
-4.39
-4.86
-5.21
-5.66
-6.42
-7.67
-9.45
-11.73
-14.31
-16.93
-19.29
-21.21
-22.65
-23.75
-24.76
-25.91
-27.33
-28.87
-30.19
-30.79
-30.19
-28.10
-24.45
-19.46
-13.55
-7.21
-0.92
4.88
9.91
13.97
17.01
19.10
20.33
20.85
20.77
20.21
19.29
18.14
16.98
15.97
15.21
14.66
14.17
13.57
12.74
11.73
10.70
9.78
9.03
8.35
7.51
6.34
4.79
3.00
1.23
-0.26
-1.36
-2.14
-2.80
-3.54
-4.49
-5.64
-6.81
-7.84
-8.54
-8.85
-8.71
-8.09
-6.98
-5.31
-3.14
-0.53
2.30
5.10
7.57
9.50
10.72
11.19
10.98
10.25
9.21
8.13
7.22
6.62
6.38
6.42
6.66
6.96
7.25
7.47
7.60
7.61
7.49
7.19
6.69
6.00
5.17
4.24
3.30
2.39
1.51
0.67
-0.15
-0.97
-1.80
-2.66
-3.55
-4.50
-5.47
-6.41
-7.24
-7.84
-8.09
-7.89
-7.18
-5.95
-4.27
-2.26
-0.13
1.94
3.74
5.15
6.05
6.41
6.23
5.57
4.57
3.40
2.32
1.53
1.16
1.24
1.65
2.23
2.81
3.26
3.46
3.37
3.00
2.39
1.65
0.91
0.27
-0.21
-0.57
-0.85
-1.11
-1.34
-1.57
-1.85
-2.30
-3.04
-4.10
-5.29
-6.25
-6.61
-6.15
-4.95
-3.26
-1.44
0.31
1.95
3.57
5.20
6.73
7.89
8.43
8.24
7.45
6.35
5.30
4.56
4.22
4.22
4.40
4.65
4.90
5.19
5.60
6.20
6.93
7.67
8.27
8.56
8.49
8.10
7.54
6.98
6.57
6.38
6.40
6.57
6.80
6.98
7.06
7.00
6.85
6.73
6.82
7.37
8.57
10.57
13.32
16.59
20.00
23.09
25.43
26.68
26.62
25.17
22.37
18.33
13.24
7.36
1.04
-5.25
-10.99
-15.73
-19.21
-21.53
-23.07
-24.36
-25.86
-27.80
-30.09
-32.47
-34.61
-36.24
-37.20
-37.43
-36.86
-35.47
-33.32
-30.59
-27.57
-24.67
-22.21
-20.41
-19.30
-18.74
-18.54
-18.56
-18.70
-18.95
-19.27
-19.52
-19.51
-19.04
-18.00
-16.43
-14.48
-12.34
-10.15
-8.01
-5.95
-4.06
-2.39
-1.01
0.07
0.95
1.78
2.71
3.78
4.99
6.24
7.46
8.63
9.75
10.80
11.74
12.49
12.99
13.24
13.31
13.27
13.15
12.90
12.39
11.52
10.25
8.69
7.04
5.47
4.10
2.95
1.90
0.86
-0.24
-1.38
-2.48
-3.48
-4.34
-5.07
-5.68
-6.12
-6.26
-5.90
-4.88
-3.17
-0.88
1.69
4.19
6.34
7.97
9.08
9.78
10.20
10.42
10.45
10.26
9.85
9.28
8.69
8.23
8.01
8.04
8.24
8.47
8.59
8.54
8.32
7.95
7.49
6.95
6.30
5.53
4.66
3.79
3.06
2.64
2.61
2.95
3.47
3.94
4.14
3.98
3.47
2.73
1.84
0.88
-0.18
-1.34
-2.56
-3.77
-4.81
-5.56
-5.88
-5.68
-4.93
-3.69
-2.08
-0.32
1.35
2.78
3.87
4.66
5.22
5.64
5.95
6.16
6.23
6.13
5.86
5.46
5.03
4.76
4.77
5.14
5.77
6.50
7.11
7.47
7.55
7.45
7.22
6.88
6.38
5.62
4.60
3.39
2.13
0.93
-0.10
-0.93
-1.60
-2.21
-2.86
-3.62
-4.53
-5.50
-6.37
-7.02
-7.42
-7.67
-7.96
-8.47
-9.17
-9.87
-10.20
-9.84
-8.63
-6.69
-4.34
-1.96
0.11
1.68
2.71
3.27
3.46
3.41
3.20
2.89
2.55
2.24
2.00
1.88
1.92
2.08
2.33
2.58
2.72
2.70
2.51
2.23
1.93
1.68
1.46
1.25
0.98
0.61
0.13
-0.40
-0.94
-1.44
-1.86
-2.24
-2.63
-3.08
-3.63
-4.29
-5.06
-5.91
-6.84
-7.78
-8.64
-9.23
-9.38
-8.95
-7.96
-6.58
-5.04
-3.58
-2.32
-1.28
-0.37
0.45
1.22
1.86
2.28
2.41
2.30
2.07
1.89
1.91
2.16
2.60
3.14
3.67
4.15
4.58
4.96
5.27
5.46
5.49
5.34
5.05
4.67
4.26
3.83
3.34
2.79
2.17
1.51
0.79
0.04
-0.76
-1.60
-2.42
-3.16
-3.80
-4.39
-5.04
-5.86
-6.88
-7.98
-8.94
-9.50
-9.47
-8.76
-7.46
-5.71
-3.73
-1.75
0.04
1.45
2.38
2.80
2.82
2.60
2.32
2.12
2.01
1.95
1.86
1.73
1.60
1.57
1.70
1.99
2.35
2.70
2.94
3.03
2.96
2.74
2.43
2.06
1.68
1.34
1.05
0.76
0.41
-0.11
-0.83
-1.68
-2.54
-3.28
-3.83
-4.24
-4.66
-5.24
-6.06
-7.08
-8.17
-9.18
-9.96
-10.39
-10.36
-9.78
-8.62
-6.96
-4.99
-2.95
-1.09
0.44
1.62
2.51
3.14
3.49
3.46
3.01
2.23
1.35
0.68
0.43
0.63
1.11
1.60
1.86
1.85
1.67
1.52
1.54
1.76
2.08
2.28
2.21
1.78
1.06
0.20
-0.65
-1.35
-1.89
-2.30
-2.72
-3.28
-4.08
-5.13
-6.39
-7.75
-9.08
-10.25
-11.07
-11.38
-11.02
-9.91
-8.11
-5.83
-3.43
-1.23
0.53
1.78
2.59
3.09
3.37
3.44
3.31
2.98
2.56
2.21
2.09
2.28
2.75
3.36
3.95
4.43
4.78
5.06
5.35
5.66
5.95
6.14
6.17
5.97
5.53
4.84
3.93
2.82
1.60
0.38
-0.74
-1.70
-2.52
-3.30
-4.12
-5.04
-6.05
-7.11
-8.17
-9.19
-10.11
-10.79
-11.05
-10.69
-9.61
-7.90
-5.82
-3.67
-1.69
-0.00
1.45
2.73
3.87
4.78
5.34
5.55
5.48
5.33
5.26
5.38
5.64
5.92
6.16
6.32
6.49
6.73
7.05
7.37
7.57
7.55
7.29
6.85
6.31
5.74
5.14
4.48
3.71
2.81
1.81
0.75
-0.30
-1.28
-2.17
-2.96
-3.65
-4.24
-4.77
-5.33
-6.05
-7.04
-8.30
-9.70
-10.96
-11.74
-11.78
-11.00
-9.45
-7.32
-4.84
-2.27
0.14
2.16
3.60
4.40
4.64
4.47
4.08
3.62
3.14
2.71
2.38
2.27
2.47
3.01
3.79
4.65
5.41
5.94
6.24
6.33
6.30
6.14
5.86
5.39
4.69
3.78
2.70
1.58
0.54
-0.32
-1.00
-1.55
-2.08
-2.67
-3.35
-4.12
-4.96
-5.88
-6.86
-7.86
-8.71
-9.13
-8.87
-7.77
-5.92
-3.56
-1.06
1.26
3.21
4.70
5.74
6.36
6.61
6.55
6.32
6.03
5.76
5.53
5.28
5.02
4.76
4.63
4.68
4.92
5.25
5.51
5.60
5.49
5.24
4.91
4.52
3.99
3.25
2.25
1.07
-0.13
-1.19
-2.01
-2.62
-3.13
-3.69
-4.42
-5.31
-6.31
-7.28
-8.12
-8.72
-8.99
-8.86
-8.26
-7.12
-5.44
-3.34
-1.05
1.11
2.85
3.98
4.52
4.59
4.45
4.28
4.16
4.09
4.01
3.93
3.84
3.85
4.00
4.25
4.50
4.64
4.60
4.41
4.17
4.00
3.98
4.08
4.21
4.24
4.08
3.70
3.12
2.35
1.42
0.38
-0.71
-1.72
-2.51
-3.04
-3.34
-3.61
-4.08
-4.97
-6.30
-7.94
-9.60
-10.89
-11.54
-11.38
-10.39
-8.73
-6.62
-4.25
-1.82
0.53
2.67
4.41
5.64
6.29
6.41
6.18
5.81
5.48
5.25
5.08
4.91
4.73
4.56
4.51
4.61
4.83
5.07
5.21
5.18
4.93
4.49
3.92
3.25
2.52
1.76
1.00
0.28
-0.35
-0.91
-1.42
-1.98
-2.71
-3.66
-4.85
-6.19
-7.53
-8.70
-9.55
-9.96
-9.84
-9.10
-7.73
-5.78
-3.45
-1.05
1.09
2.74
3.83
4.45
4.75
4.88
4.90
4.82
4.66
4.48
4.37
4.41
4.61
4.89
5.16
5.31
5.33
5.24
5.11
4.96
4.78
4.49
4.06
3.45
2.71
1.91
1.11
0.34
-0.42
-1.23
-2.11
-3.05
-3.99
-4.84
-5.57
-6.22
-6.91
-7.69
-8.52
-9.21
-9.46
-9.02
-7.77
-5.85
-3.58
-1.35
0.52
1.89
2.79
3.39
3.86
4.32
4.73
4.98
4.96
4.66
4.19
3.76
3.59
3.79
4.27
4.87
5.33
5.51
5.37
5.02
4.61
4.27
4.09
4.07
4.15
4.20
4.09
3.70
3.01
2.14
1.35
0.89
0.95
1.50
2.36
3.22
3.77
3.84
3.38
2.51
1.40
0.29
-0.60
-1.08
-1.00
-0.28
1.04
2.84
4.89
7.00
8.97
10.68
12.04
13.01
13.57
13.71
13.50
13.02
12.41
11.79
11.23
10.65
9.84
8.47
6.27
3.06
-1.13
-6.06
-11.44
-16.95
-22.33
-27.37
-31.90
-35.84
-39.18
-41.98
-44.35
-46.32
-47.75
-48.33
-47.73
-45.75
-42.49
-38.38
-34.02
-30.00
-26.71
-24.30
-22.76
-21.99
-21.94
-22.50
-23.55
-24.86
-26.23
-27.58
-29.03
-30.89
-33.53
-37.15
-41.65
-46.58
-51.28
-55.07
-57.43
-58.10
-57.00
-54.10
-49.42
-43.00
-34.96
-25.57
-15.16
-4.04
7.59
19.65
32.00
44.37
56.20
66.83
75.66
82.37
86.97
89.62
90.50
89.70
87.22
83.17
77.92
71.99
65.96
60.18
54.72
49.42
44.11
38.77
33.66
29.12
25.44
22.70
20.71
19.15
17.70
16.17
14.53
12.89
11.37
10.04
8.91
7.86
6.77
5.53
4.09
2.48
0.78
-0.88
-2.41
-3.73
-4.86
-5.85
-6.73
-7.53
-8.20
-8.68
-8.92
-8.95
-8.87
-8.82
-8.93
-9.27
-9.79
-10.31
-10.64
-10.61
-10.15
-9.34
-8.41
-7.63
-7.23
-7.37
-8.04
-9.13
-10.46
-11.78
-12.86
-13.50
-13.58
-13.02
-11.85
-10.16
-8.11
-5.91
-3.77
-1.89
-0.38
0.75
1.56
2.15
2.60
2.95
3.22
3.41
3.57
3.75
4.00
4.33
4.70
5.06
5.36
5.59
5.78
5.94
6.10
6.26
6.40
6.51
6.59
6.60
6.49
6.17
5.56
4.61
3.37
1.97
0.57
-0.61
-1.44
-1.92
-2.17
-2.39
-2.78
-3.43
-4.30
-5.29
-6.26
-7.09
-7.67
-7.89
-7.62
-6.78
-5.38
-3.58
-1.64
0.15
1.55
2.50
3.00
3.14
3.03
2.76
2.40
2.00
1.63
1.32
1.10
0.94
0.88
0.92
1.10
1.43
1.83
2.18
2.36
2.36
2.19
1.88
1.42
0.73
-0.28
-1.69
-3.48
-5.49
-7.52
-9.35
-10.88
-12.13
-13.15
-14.02
-14.94
-16.06
-17.50
-19.29
-21.37
-23.61
-25.84
-27.71
-28.97
-29.64
-29.91
-29.95
-29.88
-29.67
-29.19
-28.30
-26.57
-23.91
-20.80
-18.13
-16.78
-17.28
-19.67
-23.35
-27.16
-28.89
-26.64
-19.43
-7.41
8.46
26.87
46.35
65.42
82.62
97.34
108.81
116.00
118.03
114.87
107.47
97.44
86.53
71.33
51.49
29.87
10.96
-2.48
-10.54
-15.13
-18.35
-21.53
-25.03
-27.87
-29.29
-28.96
-27.95
-27.18
-27.03
-27.36
-27.91
-28.47
-28.41
-27.51
-26.07
-24.71
-23.80
-23.69
-24.21
-25.07
-26.01
-26.44
-26.02
-24.75
-22.91
-20.71
-18.19
-15.28
-11.98
-8.50
-4.96
-1.64
1.16
3.17
4.45
5.27
6.00
6.90
8.01
9.33
10.74
12.11
13.29
14.13
14.49
14.25
13.30
11.70
9.59
7.24
4.86
2.53
0.20
-2.17
-4.50
-6.51
-7.79
-8.01
-7.11
-5.39
-3.42
-1.74
-0.64
-0.09
0.22
0.65
1.45
2.70
4.30
6.13
8.06
9.99
11.82
13.35
14.39
14.79
14.56
13.90
13.26
13.13
13.94
15.84
18.64
21.90
25.07
27.73
29.73
31.16
32.24
33.16
33.99
34.67
35.08
35.12
34.69
33.72
32.06
29.55
26.10
21.77
16.78
11.50
6.34
1.62
-2.48
-5.87
-8.59
-10.71
-12.35
-13.67
-14.86
-16.10
-17.45
-18.89
-20.28
-21.47
-22.32
-22.86
-23.20
-23.47
-23.73
-23.91
-23.77
-23.07
-21.65
-19.53
-16.92
-14.17
-11.66
-9.66
-8.27
-7.41
-6.90
-6.52
-6.15
-5.78
-5.50
-5.42
-5.57
-5.86
-6.11
-6.15
-5.84
-5.23
-4.42
-3.64
-3.06
-2.77
-2.78
-2.96
-3.17
-3.28
-3.22
-3.04
-2.80
-2.58
-2.43
-2.30
-2.17
-2.02
-1.88
-1.83
-1.91
-2.17
-2.65
-3.38
-4.37
-5.59
-6.93
-8.14
-8.95
-9.13
-8.61
-7.55
-6.20
-4.84
-3.62
-2.57
-1.60
-0.64
0.30
1.19
1.96
2.62
3.21
3.81
4.34
4.67
4.59
3.97
2.88
1.59
0.49
-0.11
-0.03
0.69
1.89
3.37
4.95
6.42
7.51
7.93
7.44
5.99
3.84
1.42
-0.86
-2.83
-4.65
-6.67
-9.20
-12.33
-15.85
-19.38
-22.57
-25.28
-27.58
-29.65
-31.66
-33.61
-35.36
-36.63
-37.11
-36.50
-34.56
-31.16
-26.43
-20.82
-15.21
-10.73
-8.39
-8.62
-11.07
-14.58
-17.62
-18.90
-17.82
-14.65
-10.23
-5.57
-1.37
2.06
4.75
6.87
8.62
10.22
11.96
14.14
16.97
20.26
23.51
26.02
27.29
27.33
26.70
26.25
26.60
27.82
29.38
30.42
30.26
28.63
25.71
21.91
17.70
13.49
9.75
7.05
5.95
6.67
8.92
11.84
14.37
15.66
15.45
14.11
12.35
10.80
9.62
8.50
6.89
4.36
0.90
-3.04
-6.67
-9.18
-9.99
-8.98
-6.52
-3.36
-0.45
1.31
1.32
-0.55
-3.96
-8.20
-12.51
-16.25
-19.11
-21.01
-21.94
-21.84
-20.55
-17.98
-14.34
-10.16
-6.20
-3.15
-1.37
-0.77
-0.96
-1.46
-1.96
-2.32
-2.53
-2.60
-2.52
-2.24
-1.81
-1.38
-1.13
-1.21
-1.62
-2.19
-2.69
-2.94
-2.81
-2.32
-1.55
-0.63
0.29
1.06
1.53
1.67
1.54
1.31
1.14
1.10
1.16
1.21
1.17
1.00
0.79
0.65
0.70
1.02
1.62
2.42
3.27
3.94
4.23
4.05
3.46
2.63
1.81
1.13
0.59
0.02
-0.78
-1.94
-3.41
-4.99
-6.40
-7.42
-7.97
-8.07
-7.80
-7.21
-6.31
-5.06
-3.43
-1.49
0.59
2.58
4.21
5.33
5.89
5.95
5.67
5.18
4.63
4.09
3.57
3.09
2.67
2.37
2.25
2.34
2.62
2.97
3.23
3.28
3.07
2.59
1.90
1.01
-0.05
-1.27
-2.58
-3.86
-4.92
-5.60
-5.82
-5.66
-5.34
-5.13
-5.30
-5.89
-6.75
-7.54
-7.84
-7.34
-5.88
-3.54
-0.57
2.70
5.90
8.66
10.61
11.48
11.14
9.75
7.75
5.77
4.45
4.20
5.07
6.78
8.81
10.59
11.69
11.88
11.18
9.82
8.13
6.47
5.08
4.09
3.46
3.05
2.69
2.24
1.65
0.91
0.05
-0.96
-2.15
-3.56
-5.16
-6.84
-8.39
-9.60
-10.28
-10.35
-9.76
-8.57
-6.81
-4.55
-1.91
0.88
3.46
5.42
6.43
6.38
5.44
4.03
2.61
1.53
0.91
0.66
0.56
0.43
0.24
0.11
0.22
0.68
1.46
2.36
3.05
3.24
2.75
1.65
0.21
-1.26
-2.53
-3.56
-4.52
-5.66
-7.25
-9.48
-12.33
-15.57
-18.72
-21.05
-21.77
-20.26
-16.42
-10.80
-4.47
1.28
5.43
7.50
7.66
6.48
4.67
2.92
1.73
1.47
2.26
4.00
6.31
8.62
10.44
11.45
11.68
11.35
10.71
9.91
8.98
7.93
6.90
6.07
5.64
5.62
5.81
5.83
5.29
4.02
2.09
-0.17
-2.37
-4.20
-5.55
-6.53
-7.37
-8.32
-9.51
-10.91
-12.31
-13.39
-13.82
-13.31
-11.80
-9.39
-6.39
-3.19
-0.18
2.41
4.47
6.01
7.13
7.90
8.41
8.66
8.66
8.45
8.06
7.62
7.29
7.25
7.63
8.41
9.43
10.38
10.98
11.09
10.76
10.18
9.55
8.96
8.42
7.82
7.12
6.32
5.49
4.67
3.84
2.90
1.74
0.32
-1.27
-2.89
-4.34
-5.51
-6.40
-7.09
-7.71
-8.34
-8.99
-9.52
-9.76
-9.47
-8.49
-6.75
-4.34
-1.46
1.57
4.43
6.80
8.48
9.35
9.43
8.85
7.82
6.63
5.52
4.69
4.24
4.16
4.37
4.79
5.36
6.05
6.81
7.51
8.01
8.17
7.91
7.27
6.39
5.44
4.53
3.70
2.90
2.03
1.01
-0.12
-1.27
-2.28
-3.01
-3.46
-3.74
-4.08
-4.63
-5.46
-6.50
-7.61
-8.70
-9.73
-10.70
-11.54
-12.10
-12.09
-11.27
-9.57
-7.10
-4.17
-1.15
1.66
4.04
5.81
6.86
7.04
6.33
4.83
2.86
0.90
-0.60
-1.37
-1.41
-0.95
-0.33
0.20
0.58
0.88
1.24
1.70
2.20
2.56
2.63
2.34
1.75
1.02
0.25
-0.46
-1.12
-1.74
-2.36
-2.93
-3.46
-3.92
-4.33
-4.74
-5.20
-5.77
-6.44
-7.19
-7.92
-8.44
-8.54
-8.01
-6.74
-4.78
-2.37
0.12
2.32
3.97
4.95
5.31
5.17
4.66
3.94
3.11
2.29
1.59
1.11
0.89
0.96
1.26
1.72
2.26
2.79
3.26
3.58
3.68
3.48
3.01
2.37
1.72
1.20
0.91
0.83
0.83
0.74
0.42
-0.15
-0.94
-1.86
-2.81
-3.73
-4.58
-5.32
-5.97
-6.60
-7.31
-8.19
-9.21
-10.21
-10.92
-11.00
-10.27
-8.69
-6.47
-3.94
-1.45
0.73
2.44
3.64
4.35
4.64
4.59
4.31
3.89
3.43
3.01
2.69
2.48
2.38
2.37
2.42
2.52
2.70
2.96
3.33
3.77
4.18
4.45
4.45
4.11
3.43
2.47
1.37
0.25
-0.78
-1.66
-2.37
-2.95
-3.44
-3.90
-4.33
-4.77
-5.23
-5.78
-6.48
-7.33
-8.28
-9.16
-9.80
-10.03
-9.77
-9.02
-7.86
-6.40
-4.75
-3.06
-1.45
-0.02
1.22
2.31
3.37
4.45
5.50
6.32
6.60
6.10
4.79
2.89
0.88
-0.73
-1.54
-1.47
-0.73
0.31
1.30
2.05
2.60
3.02
3.37
3.56
3.42
2.83
1.83
0.61
-0.54
-1.36
-1.76
-1.78
-1.60
-1.44
-1.52
-1.99
-2.91
-4.20
-5.67
-7.05
-8.03
-8.37
-7.90
-6.65
-4.76
-2.47
-0.09
2.08
3.83
5.05
5.73
5.90
5.63
4.98
4.09
3.14
2.32
1.80
1.65
1.79
2.08
2.37
2.60
2.78
2.92
3.07
3.17
3.21
3.13
2.90
2.49
1.86
1.00
-0.06
-1.23
-2.34
-3.20
-3.71
-3.85
-3.74
-3.63
-3.77
-4.35
-5.42
-6.83
-8.29
-9.43
-9.92
-9.60
-8.46
-6.67
-4.43
-1.99
0.46
2.73
4.63
5.94
6.53
6.43
5.83
5.06
4.41
4.04
3.93
3.90
3.83
3.68
3.49
3.34
3.26
3.19
3.07
2.91
2.81
2.86
3.08
3.38
3.59
3.54
3.18
2.56
1.80
1.00
0.20
-0.63
-1.51
-2.40
-3.21
-3.89
-4.45
-5.01
-5.73
-6.71
-7.89
-9.03
-9.79
-9.85
-9.09
-7.56
-5.47
-3.09
-0.60
1.84
4.09
5.97
7.29
7.91
7.83
7.22
6.29
5.28
4.36
3.58
3.00
2.66
2.59
2.75
3.06
3.31
3.33
3.09
2.68
2.29
2.07
2.01
1.89
1.43
0.44
-1.08
-2.93
-4.80
-6.44
-7.72
-8.71
-9.54
-10.37
-11.26
-12.17
-12.99
-13.55
-13.68
-13.23
-12.11
-10.39
-8.25
-6.00
-3.94
-2.31
-1.15
-0.41
0.05
0.32
0.41
0.26
-0.19
-0.88
-1.60
-2.04
-1.90
-1.06
0.37
2.08
3.68
4.89
5.64
6.08
6.49
7.10
7.97
8.95
9.76
10.08
9.72
8.69
7.17
5.52
4.07
3.06
2.54
2.30
2.06
1.49
0.40
-1.21
-3.16
-5.18
-6.99
-8.39
-9.24
-9.48
-9.08
-8.07
-6.60
-4.91
-3.33
-2.17
-1.58
-1.57
-1.97
-2.54
-3.08
-3.47
-3.69
-3.75
-3.69
-3.52
-3.26
-2.93
-2.57
-2.20
-1.82
-1.43
-1.02
-0.60
-0.21
0.11
0.30
0.28
-0.02
-0.61
-1.43
-2.32
-3.09
-3.63
-3.93
-4.13
-4.43
-4.99
-5.87
-6.98
-8.16
-9.24
-10.09
-10.63
-10.78
-10.48
-9.67
-8.35
-6.56
-4.43
-2.15
0.09
2.09
3.71
4.85
5.51
5.71
5.54
5.08
4.48
3.85
3.34
3.09
3.16
3.51
4.05
4.62
5.13
5.55
5.90
6.21
6.46
6.59
6.50
6.15
5.54
4.73
3.79
2.79
1.81
0.94
0.23
-0.30
-0.71
-1.07
-1.53
-2.23
-3.24
-4.56
-6.04
-7.45
-8.48
-8.84
-8.36
-7.07
-5.18
-3.02
-0.93
0.88
2.32
3.42
4.20
4.68
4.84
4.66
4.17
3.48
2.74
2.13
1.75
1.63
1.73
2.00
2.34
2.68
2.97
3.17
3.26
3.22
3.01
2.60
1.93
1.02
-0.08
-1.22
-2.21
-2.92
-3.33
-3.54
-3.75
-4.13
-4.77
-5.63
-6.59
-7.48
-8.12
-8.34
-7.99
-6.99
-5.40
-3.37
-1.17
0.98
2.93
4.64
6.08
7.17
7.77
7.75
7.12
6.05
4.85
3.88
3.41
3.51
4.05
4.81
5.56
6.12
6.37
6.26
5.81
5.13
4.33
3.52
2.77
2.11
1.51
0.88
0.05
-0.98
-2.15
-3.38
-4.65
-5.97
-7.38
-8.94
-10.71
-12.78
-14.96
-16.90
-18.27
-18.91
-18.76
-17.78
-16.02
-13.71
-11.27
-8.85
-6.54
-4.47
-2.91
-1.98
-1.55
-1.22
-0.56
0.75
3.44
8.24
15.59
25.40
37.37
51.06
66.14
82.35
96.00
103.46
102.99
95.78
84.12
69.56
52.57
33.53
13.57
-5.47
-21.01
-31.02
-34.96
-34.50
-31.72
-28.48
-25.80
-23.85
-22.29
-20.40
-17.89
-15.29
-13.80
-14.41
-17.31
-21.78
-26.17
-28.99
-29.19
-26.70
-22.24
-17.00
-11.95
-7.67
-4.36
-2.12
-1.14
-1.49
-2.94
-4.99
-6.92
-7.94
-7.58
-5.74
-2.75
0.84
4.49
7.76
10.38
12.14
12.98
12.86
11.88
10.22
8.16
5.98
3.92
2.15
0.69
-0.51
-1.57
-2.58
-3.59
-4.50
-5.22
-5.66
-5.83
-5.90
-6.10
-6.61
-7.43
-8.29
-8.76
-8.38
-6.90
-4.36
-1.13
2.25
5.23
7.47
8.88
9.58
9.78
9.65
9.26
8.58
7.58
6.29
4.84
3.46
2.34
1.62
1.33
1.40
1.70
2.07
2.34
2.42
2.26
1.91
1.50
1.14
0.88
0.66
0.32
-0.29
-1.23
-2.40
-3.59
-4.61
-5.37
-5.93
-6.46
-7.11
-7.99
-9.04
-10.20
-11.33
-12.36
-13.20
-13.72
-13.74
-13.06
-11.55
-9.22
-6.29
-3.15
-0.22
2.16
3.83
4.79
5.16
5.06
4.59
3.87
3.01
2.22
1.66
1.47
1.65
2.12
2.76
3.49
4.24
4.98
5.66
6.19
6.46
6.37
5.91
5.11
4.09
3.05
2.16
1.56
1.25
1.13
0.98
0.62
-0.04
-0.94
-1.87
-2.66
-3.21
-3.60
-3.96
-4.47
-5.19
-6.14
-7.28
-8.57
-9.98
-11.39
-12.57
-13.14
-12.78
-11.31
-8.84
-5.70
-2.29
0.97
3.82
6.12
7.78
8.72
8.90
8.39
7.36
6.13
5.02
4.28
3.99
4.09
4.43
4.86
5.27
5.63
5.93
6.13
6.21
6.14
5.86
5.35
4.61
3.65
2.58
1.50
0.53
-0.27
-0.92
-1.51
-2.13
-2.82
-3.53
-4.12
-4.49
-4.60
-4.57
-4.60
-4.91
-5.64
-6.79
-8.19
-9.59
-10.67
-11.17
-10.87
-9.70
-7.73
-5.12
-2.18
0.78
3.42
5.47
6.80
7.35
7.23
6.61
5.70
4.74
3.87
3.21
2.79
2.61
2.63
2.82
3.12
3.51
3.94
4.37
4.78
5.15
5.43
5.59
5.58
5.37
4.94
4.30
3.50
2.63
1.75
0.91
0.13
-0.58
-1.25
-1.92
-2.56
-3.16
-3.66
-4.04
-4.36
-4.75
-5.39
-6.42
-7.86
-9.59
-11.30
-12.65
-13.29
-13.02
-11.80
-9.74
-7.05
-4.02
-0.93
1.93
4.31
5.99
6.83
6.85
6.20
5.14
4.00
3.05
2.50
2.42
2.79
3.47
4.31
5.16
5.91
6.54
7.06
7.51
7.87
8.12
8.13
7.84
7.20
6.28
5.20
4.13
3.22
2.50
1.96
1.46
0.87
0.09
-0.87
-1.92
-2.91
-3.72
-4.31
-4.77
-5.29
-6.03
-7.08
-8.38
-9.75
-10.95
-11.71
-11.87
-11.35
-10.19
-8.49
-6.41
-4.11
-1.76
0.50
2.49
4.09
5.14
5.55
5.29
4.46
3.27
2.01
0.95
0.30
0.11
0.33
0.83
1.46
2.11
2.70
3.19
3.56
3.81
3.96
4.03
4.02
3.88
3.53
2.90
1.98
0.80
-0.52
-1.81
-2.96
-3.90
-4.65
-5.28
-5.90
-6.62
-7.49
-8.46
-9.41
-10.17
-10.61
-10.61
-10.13
-9.12
-7.56
-5.47
-2.92
-0.14
2.57
4.86
6.46
7.27
7.37
6.96
6.25
5.43
4.61
3.87
3.25
2.82
2.67
2.82
3.27
3.93
4.66
5.32
5.75
5.87
5.66
5.18
4.51
3.74
2.96
2.21
1.47
0.75
-0.01
-0.84
-1.78
-2.83
-3.96
-5.05
-5.97
-6.60
-6.90
-7.01
-7.17
-7.64
-8.53
-9.75
-10.97
-11.79
-11.85
-10.95
-9.10
-6.53
-3.56
-0.56
2.16
4.39
6.01
7.00
7.41
7.30
6.76
5.92
4.93
4.01
3.32
2.96
2.94
3.16
3.48
3.81
4.12
4.45
4.83
5.25
5.61
5.81
5.74
5.39
4.80
4.04
3.18
2.26
1.27
0.23
-0.81
-1.72
-2.41
-2.82
-3.02
-3.15
-3.41
-4.00
-5.04
-6.51
-8.28
-10.05
-11.46
-12.12
-11.81
-10.47
-8.29
-5.67
-3.04
-0.75
1.01
2.26
3.14
3.78
4.22
4.39
4.18
3.53
2.51
1.30
0.18
-0.62
-1.00
-1.00
-0.79
-0.53
-0.35
-0.24
-0.18
-0.10
-0.04
-0.07
-0.35
-0.95
-1.86
-2.98
-4.14
-5.21
-6.16
-6.99
-7.79
-8.56
-9.31
-9.90
-10.20
-10.08
-9.48
-8.40
-6.94
-5.18
-3.16
-0.85
1.83
4.98
8.64
12.76
17.23
21.85
26.36
30.48
33.91
36.39
37.81
38.19
37.71
36.64
35.27
33.83
32.45
31.22
30.18
29.34
28.63
27.94
27.14
26.12
24.82
23.26
21.43
19.26
16.64
13.40
9.47
4.86
-0.30
-5.80
-11.38
-16.87
-22.18
-27.31
-32.32
-37.27
-42.23
-47.25
-52.40
-57.73
-63.14
-68.28
-72.51
-75.02
-75.08
-72.31
-66.90
-59.50
-51.07
-42.46
-34.23
-26.58
-19.51
-12.95
-6.96
-1.66
2.88
6.68
9.92
12.80
15.48
17.93
20.02
21.55
22.37
22.47
21.96
21.02
19.82
18.44
16.89
15.12
13.03
10.56
7.69
4.46
1.06
-2.24
-5.13
-7.32
-8.70
-9.35
-9.49
-9.44
-9.45
-9.67
-10.17
-10.95
-12.01
-13.34
-14.86
-16.37
-17.60
-18.27
-18.17
-17.22
-15.47
-13.11
-10.35
-7.40
-4.40
-1.40
1.65
4.84
8.23
11.88
15.83
20.15
24.98
30.45
36.52
42.95
49.19
54.61
58.72
61.35
62.68
62.98
62.48
61.12
58.67
54.99
50.16
44.61
38.89
33.44
28.36
23.39
18.06
11.98
5.00
-2.73
-10.80
-18.71
-25.82
-31.51
-35.21
-36.57
-35.58
-32.67
-28.60
-24.20
-20.21
-17.01
-14.74
-13.26
-12.42
-11.99
-11.75
-11.51
-11.04
-10.28
-9.29
-8.29
-7.50
-7.05
-6.91
-6.86
-6.64
-6.03
-4.96
-3.56
-2.16
-1.11
-0.76
-1.28
-2.62
-4.54
-6.62
-8.43
-9.65
-10.14
-9.96
-9.35
-8.61
-8.04
-7.85
-8.07
-8.62
-9.25
-9.64
-9.46
-8.47
-6.61
-3.96
-0.81
2.51
5.61
8.21
10.14
11.32
11.79
11.61
10.89
9.76
8.40
7.04
5.91
5.14
4.78
4.78
5.02
5.34
5.60
5.71
5.65
5.46
5.22
4.97
4.70
4.31
3.69
2.75
1.55
0.24
-0.95
-1.83
-2.38
-2.70
-3.02
-3.61
-4.62
-6.06
-7.80
-9.59
-11.13
-12.15
-12.41
-11.76
-10.16
-7.76
-4.84
-1.80
0.97
3.16
4.65
5.51
5.86
5.87
5.61
5.11
4.44
3.73
3.19
2.99
3.23
3.85
4.68
5.48
6.10
6.46
6.59
6.58
6.50
6.38
6.24
6.03
5.74
5.33
4.74
3.95
2.92
1.70
0.39
-0.88
-1.99
-2.93
-3.76
-4.66
-5.78
-7.18
-8.76
-10.29
-11.50
-12.15
-12.12
-11.36
-9.93
-7.91
-5.43
-2.66
0.15
2.70
4.74
6.12
6.86
7.11
7.04
6.82
6.53
6.18
5.77
5.36
5.01
4.83
4.90
5.18
5.56
5.89
6.08
6.08
5.92
5.63
5.18
4.53
3.66
2.62
1.56
0.65
-0.04
-0.56
-1.08
-1.81
-2.87
-4.25
-5.80
-7.35
-8.72
-9.83
-10.56
-10.79
-10.37
-9.17
-7.23
-4.73
-2.01
0.58
2.77
4.43
5.52
6.10
6.20
5.86
5.17
4.31
3.56
3.13
3.08
3.33
3.68
4.00
4.32
4.80
5.65
6.96
8.64
10.44
12.10
13.39
14.23
14.63
14.67
14.46
14.13
13.74
13.35
12.90
12.27
11.37
10.13
8.63
7.01
5.45
4.07
2.95
2.09
1.42
0.83
0.21
-0.50
-1.32
-2.18
-3.04
-3.86
-4.69
-5.61
-6.66
-7.80
-8.92
-9.85
-10.50
-10.81
-10.79
-10.43
-9.71
-8.61
-7.21
-5.69
-4.33
-3.37
-2.88
-2.75
-2.76
-2.75
-2.71
-2.75
-3.06
-3.68
-4.48
-5.22
-5.72
-5.97
-6.18
-6.61
-7.38
-8.35
-9.19
-9.47
-8.98
-7.74
-6.01
-4.12
-2.29
-0.63
0.88
2.21
3.24
3.78
3.71
3.10
2.16
1.28
0.74
0.67
0.97
1.43
1.80
1.96
1.89
1.61
1.16
0.56
-0.17
-0.94
-1.61
-2.06
-2.22
-2.12
-1.94
-1.83
-1.93
-2.21
-2.56
-2.81
-2.80
-2.49
-1.96
-1.35
-0.85
-0.64
-0.79
-1.29
-1.98
-2.58
-2.84
-2.52
-1.56
-0.02
1.87
3.89
5.78
7.29
8.23
8.47
8.00
6.94
5.53
4.08
2.80
1.80
1.02
0.36
-0.30
-0.97
-1.63
-2.18
-2.54
-2.68
-2.59
-2.29
-1.88
-1.47
-1.22
-1.25
-1.61
-2.25
-3.03
-3.74
-4.21
-4.33
-4.12
-3.70
-3.28
-3.10
-3.31
-3.97
-4.98
-6.15
-7.27
-8.15
-8.64
-8.67
-8.17
-7.15
-5.65
-3.74
-1.57
0.70
2.94
4.99
6.75
8.09
8.92
9.20
8.95
8.32
7.52
6.74
6.15
5.78
5.57
5.37
5.01
4.40
3.49
2.31
0.96
-0.40
-1.60
-2.54
-3.12
-3.35
-3.30
-3.14
-3.02
-3.09
-3.37
-3.75
-4.09
-4.24
-4.18
-3.94
-3.63
-3.33
-3.02
-2.62
-2.05
-1.30
-0.41
0.49
1.31
2.00
2.54
2.98
3.32
3.59
3.74
3.74
3.54
3.11
2.50
1.80
1.17
0.73
0.53
0.53
0.62
0.73
0.78
0.82
0.86
0.91
0.94
0.89
0.69
0.36
-0.06
-0.54
-1.03
-1.57
-2.16
-2.85
-3.58
-4.34
-5.05
-5.73
-6.41
-7.17
-8.02
-8.91
-9.66
-10.04
-9.88
-9.09
-7.77
-6.09
-4.32
-2.68
-1.30
-0.23
0.55
1.10
1.47
1.65
1.61
1.31
0.80
0.22
-0.21
-0.27
0.15
1.01
2.12
3.17
3.91
4.23
4.12
3.75
3.29
2.89
2.58
2.32
2.04
1.66
1.17
0.60
-0.03
-0.69
-1.37
-2.09
-2.86
-3.69
-4.58
-5.51
-6.50
-7.55
-8.62
-9.68
-10.64
-11.38
-11.83
-11.94
-11.75
-11.35
-10.78
-10.09
-9.30
-8.44
-7.64
-7.10
-7.03
-7.61
-8.83
-10.52
-12.40
-14.23
-15.83
-17.19
-18.36
-19.40
-20.28
-20.85
-20.98
-20.51
-19.41
-17.72
-15.56
-13.00
-10.09
-6.84
-3.28
0.50
4.29
7.84
10.87
13.24
14.93
16.01
16.62
16.85
16.73
16.23
15.34
14.10
12.64
11.09
9.59
8.25
7.09
6.16
5.52
5.24
5.36
5.84
6.59
7.43
8.20
8.78
9.11
9.19
8.99
8.48
7.65
6.59
5.45
4.45
3.79
3.51
3.56
3.76
3.91
3.92
3.79
3.58
3.36
3.14
2.86
2.44
1.85
1.10
0.25
-0.64
-1.54
-2.44
-3.33
-4.24
-5.14
-6.01
-6.83
-7.57
-8.22
-8.80
-9.35
-9.94
-10.59
-11.29
-11.92
-12.32
-12.32
-11.81
-10.78
-9.33
-7.64
-5.90
-4.29
-2.93
-1.90
-1.15
-0.61
-0.18
0.16
0.40
0.51
0.50
0.49
0.65
1.12
1.91
2.88
3.81
4.50
4.89
5.07
5.20
5.38
5.61
5.82
5.87
5.69
5.30
4.80
4.27
3.79
3.33
2.87
2.36
1.76
1.08
0.36
-0.36
-1.07
-1.74
-2.40
-3.07
-3.84
-4.77
-5.89
-7.16
-8.40
-9.38
-9.84
-9.60
-8.57
-6.84
-4.61
-2.18
0.14
2.06
3.39
4.08
4.22
4.04
3.78
3.61
3.56
3.60
3.64
3.68
3.80
4.07
4.54
5.12
5.64
5.93
5.89
5.56
5.10
4.67
4.37
4.19
4.08
3.91
3.61
3.14
2.51
1.74
0.86
-0.06
-0.95
-1.72
-2.31
-2.72
-3.02
-3.35
-3.88
-4.71
-5.82
-7.06
-8.20
-8.92
-8.97
-8.20
-6.66
-4.54
-2.21
0.01
1.87
3.29
4.33
5.13
5.76
6.23
6.46
6.37
5.97
5.37
4.77
4.37
4.30
4.56
5.10
5.76
6.44
7.09
7.68
8.17
8.50
8.56
8.30
7.73
7.01
6.34
5.85
5.58
5.37
5.04
4.40
3.43
2.18
0.81
-0.51
-1.67
-2.59
-3.29
-3.82
-4.29
-4.83
-5.51
-6.38
-7.34
-8.26
-8.98
-9.31
-9.11
-8.27
-6.77
-4.73
-2.36
0.01
2.06
3.54
4.41
4.75
4.74
4.50
4.15
3.71
3.29
2.98
2.96
3.34
4.14
5.23
6.42
7.48
8.29
8.82
9.15
9.40
9.59
9.68
9.58
9.17
8.41
7.33
6.02
4.59
3.15
1.73
0.33
-1.01
-2.25
-3.32
-4.17
-4.82
-5.33
-5.82
-6.35
-6.99
-7.74
-8.59
-9.48
-10.29
-10.85
-10.93
-10.29
-8.85
-6.68
-4.00
-1.19
1.40
3.53
5.09
6.11
6.69
6.96
7.04
7.02
6.94
6.87
6.86
6.98
7.26
7.69
8.23
8.80
9.34
9.75
10.03
10.18
10.21
10.14
9.94
9.56
8.93
8.01
6.83
5.51
4.18
2.99
1.99
1.18
0.49
-0.18
-0.87
-1.58
-2.27
-2.92
-3.56
-4.27
-5.19
-6.38
-7.79
-9.27
-10.56
-11.37
-11.46
-10.71
-9.17
-7.00
-4.50
-1.99
0.23
1.93
3.02
3.55
3.66
3.55
3.40
3.32
3.31
3.35
3.38
3.42
3.53
3.81
4.29
4.92
5.57
6.05
6.27
6.19
5.93
5.60
5.29
4.96
4.44
3.59
2.37
0.93
-0.42
-1.42
-1.93
-2.06
-2.11
-2.42
-3.17
-4.32
-5.64
-6.86
-7.84
-8.52
-8.96
-9.17
-9.07
-8.51
-7.38
-5.67
-3.53
-1.22
0.96
2.76
4.06
4.86
5.22
5.28
5.17
4.99
4.81
4.68
4.63
4.66
4.74
4.79
4.77
4.64
4.44
4.26
4.22
4.31
4.47
4.57
4.49
4.20
3.76
3.28
2.80
2.29
1.66
0.82
-0.18
-1.24
-2.24
-3.13
-3.95
-4.82
-5.76
-6.73
-7.62
-8.34
-8.88
-9.33
-9.79
-10.25
-10.61
-10.66
-10.25
-9.34
-8.04
-6.58
-5.18
-3.97
-2.96
-2.07
-1.19
-0.28
0.63
1.45
2.11
2.57
2.91
3.23
3.65
4.20
4.84
5.46
5.98
6.41
6.84
7.33
7.89
8.36
8.60
8.46
7.97
7.26
6.54
5.92
5.42
4.96
4.42
3.75
2.96
2.12
1.31
0.56
-0.10
-0.71
-1.32
-1.97
-2.70
-3.55
-4.55
-5.66
-6.87
-8.11
-9.32
-10.40
-11.23
-11.67
-11.60
-10.94
-9.72
-8.08
-6.18
-4.24
-2.41
-0.79
0.52
1.50
2.13
2.43
2.44
2.28
2.05
1.85
1.73
1.73
1.85
2.10
2.46
2.89
3.34
3.75
4.08
4.29
4.37
4.28
3.99
3.49
2.86
2.23
1.74
1.46
1.35
1.23
0.94
0.36
-0.45
-1.34
-2.17
-2.86
-3.49
-4.22
-5.22
-6.51
-7.96
-9.26
-10.09
-10.20
-9.53
-8.18
-6.40
-4.46
-2.59
-0.93
0.44
1.47
2.12
2.39
2.32
2.06
1.79
1.68
1.83
2.22
2.72
3.19
3.52
3.72
3.90
4.19
4.70
5.42
6.26
7.00
7.46
7.51
7.13
6.45
5.65
4.91
4.32
3.90
3.52
3.09
2.50
1.74
0.84
-0.18
-1.27
-2.41
-3.56
-4.67
-5.74
-6.86
-8.12
-9.59
-11.20
-12.73
-13.89
-14.44
-14.26
-13.44
-12.18
-10.72
-9.22
-7.79
-6.46
-5.28
-4.31
-3.62
-3.22
-3.07
-3.04
-2.98
-2.79
-2.43
-1.91
-1.34
-0.79
-0.31
0.13
0.59
1.13
1.75
2.40
2.97
3.41
3.67
3.74
3.64
3.36
2.92
2.36
1.81
1.36
1.09
1.03
1.08
1.11
1.01
0.71
0.24
-0.38
-1.12
-2.01
-3.07
-4.27
-5.52
-6.66
-7.52
-7.94
-7.82
-7.14
-5.92
-4.28
-2.37
-0.36
1.54
3.21
4.54
5.48
6.01
6.11
5.81
5.13
4.22
3.27
2.51
2.10
2.10
2.44
2.95
3.42
3.74
3.85
3.81
3.69
3.56
3.41
3.20
2.85
2.32
1.63
0.86
0.08
-0.63
-1.27
-1.90
-2.61
-3.49
-4.58
-5.88
-7.33
-8.86
-10.39
-11.81
-12.99
-13.75
-13.90
-13.29
-11.87
-9.73
-7.08
-4.23
-1.43
1.11
3.27
5.00
6.30
7.16
7.64
7.82
7.79
7.61
7.31
6.90
6.42
5.96
5.65
5.59
5.76
6.03
6.23
6.22
6.00
5.67
5.38
5.21
5.15
5.11
5.01
4.80
4.47
3.99
3.32
2.42
1.29
-0.00
-1.39
-2.82
-4.33
-5.98
-7.76
-9.51
-10.91
-11.63
-11.38
-10.14
-8.10
-5.62
-3.12
-0.89
0.90
2.21
3.10
3.66
3.97
4.11
4.14
4.11
4.03
3.93
3.88
3.93
4.15
4.55
5.11
5.72
6.28
6.70
6.96
7.10
7.15
7.10
6.88
6.44
5.73
4.84
3.89
3.04
2.35
1.78
1.24
0.59
-0.21
-1.12
-2.05
-2.92
-3.74
-4.60
-5.60
-6.77
-7.97
-8.96
-9.41
-9.05
-7.82
-5.81
-3.28
-0.55
2.08
4.40
6.31
7.74
8.66
9.09
9.05
8.62
7.89
6.99
6.04
5.17
4.52
4.17
4.13
4.29
4.49
4.53
4.32
3.89
3.37
2.95
2.74
2.70
2.69
2.53
2.09
1.34
0.37
-0.67
-1.63
-2.44
-3.09
-3.62
-4.12
-4.64
-5.21
-5.84
-6.53
-7.29
-8.16
-9.20
-10.40
-11.67
-12.82
-13.54
-13.54
-12.66
-10.91
-8.49
-5.71
-2.91
-0.29
2.04
4.03
5.66
6.83
7.44
7.43
6.85
5.86
4.71
3.64
2.84
2.40
2.27
2.34
2.46
2.51
2.41
2.20
1.93
1.73
1.68
1.79
2.01
2.23
2.32
2.18
1.78
1.16
0.43
-0.31
-0.99
-1.59
-2.13
-2.66
-3.23
-3.89
-4.70
-5.68
-6.75
-7.72
-8.34
-8.35
-7.60
-6.11
-4.08
-1.80
0.50
2.65
4.57
6.17
7.33
7.90
7.82
7.15
6.08
4.91
3.89
3.18
2.82
2.77
2.93
3.23
3.68
4.28
5.05
5.94
6.87
7.69
8.26
8.50
8.44
8.12
7.58
6.85
5.89
4.65
3.14
1.42
-0.36
-2.02
-3.43
-4.50
-5.25
-5.82
-6.37
-7.11
-8.16
-9.51
-10.97
-12.20
-12.83
-12.58
-11.34
-9.23
-6.47
-3.37
-0.24
2.65
5.10
6.98
8.24
8.91
9.07
8.83
8.36
7.79
7.26
6.86
6.63
6.58
6.68
6.88
7.16
7.50
7.83
8.09
8.22
8.18
7.95
7.56
7.07
6.52
5.88
5.12
4.22
3.16
1.97
0.72
-0.54
-1.73
-2.80
-3.69
-4.37
-4.83
-5.11
-5.32
-5.62
-6.19
-7.13
-8.42
-9.87
-11.14
-11.85
-11.71
-10.61
-8.65
-6.09
-3.25
-0.46
2.04
4.03
5.38
6.01
6.00
5.52
4.86
4.30
4.02
4.09
4.42
4.90
5.40
5.84
6.16
6.31
6.26
5.99
5.56
5.08
4.67
4.34
4.06
3.67
3.08
2.25
1.31
0.42
-0.30
-0.80
-1.22
-1.69
-2.34
-3.20
-4.22
-5.36
-6.60
-8.02
-9.67
-11.52
-13.37
-14.93
-15.83
-15.84
-14.92
-13.21
-10.94
-8.36
-5.63
-2.87
-0.23
2.08
3.82
4.82
5.12
4.88
4.38
3.84
3.35
2.89
2.43
1.97
1.60
1.42
1.49
1.74
2.08
2.39
2.66
2.95
3.32
3.78
4.26
4.60
4.63
4.25
3.46
2.37
1.13
-0.09
-1.21
-2.24
-3.24
-4.29
-5.36
-6.39
-7.25
-7.92
-8.44
-8.93
-9.43
-9.88
-10.04
-9.62
-8.45
-6.53
-4.11
-1.54
0.84
2.81
4.30
5.33
5.94
6.16
6.00
5.54
4.89
4.22
3.70
3.42
3.42
3.66
4.06
4.56
5.13
5.71
6.28
6.76
7.09
7.21
7.08
6.71
6.13
5.39
4.56
3.70
2.89
2.18
1.57
1.01
0.37
-0.45
-1.46
-2.60
-3.70
-4.63
-5.34
-5.92
-6.55
-7.38
-8.48
-9.70
-10.80
-11.47
-11.47
-10.71
-9.22
-7.17
-4.77
-2.26
0.09
2.09
3.59
4.52
4.90
4.83
4.50
4.06
3.70
3.46
3.37
3.36
3.33
3.23
3.06
2.90
2.83
2.89
3.08
3.29
3.40
3.31
2.98
2.47
1.84
1.17
0.47
-0.27
-1.09
-1.97
-2.84
-3.64
-4.31
-4.88
-5.45
-6.16
-7.11
-8.30
-9.57
-10.64
-11.19
-10.95
-9.86
-8.02
-5.71
-3.28
-0.99
0.99
2.58
3.78
4.59
4.96
4.88
4.34
3.46
2.39
1.36
0.62
0.32
0.54
1.24
2.26
3.32
4.15
4.53
4.43
3.92
3.21
2.50
1.91
1.46
1.06
0.61
0.03
-0.68
-1.42
-2.06
-2.45
-2.53
-2.33
-2.01
-1.78
-1.82
-2.22
-2.94
-3.85
-4.78
-5.59
-6.15
-6.38
-6.16
-5.46
-4.32
-2.93
-1.56
-0.50
0.06
0.11
-0.22
-0.69
-1.07
-1.19
-0.98
-0.41
0.48
1.61
2.86
4.07
5.10
5.83
6.22
6.30
6.16
5.89
5.55
5.14
4.64
4.04
3.32
2.52
1.70
0.92
0.22
-0.33
-0.73
-0.95
-1.06
-1.16
-1.35
-1.75
-2.45
-3.44
-4.66
-5.98
-7.25
-8.26
-8.83
-8.83
-8.20
-6.98
-5.33
-3.44
-1.59
0.02
1.27
2.10
2.58
2.79
2.82
2.74
2.58
2.37
2.17
2.05
2.07
2.25
2.56
2.94
3.30
3.59
3.81
3.96
4.10
4.21
4.24
4.09
3.63
2.79
1.62
0.33
-0.81
-1.59
-1.95
-2.05
-2.18
-2.61
-3.44
-4.63
-6.04
-7.49
-8.87
-10.06
-10.91
-11.22
-10.78
-9.53
-7.59
-5.26
-2.91
-0.79
0.97
2.40
3.54
4.42
4.97
5.17
5.06
4.78
4.49
4.31
4.24
4.24
4.22
4.18
4.19
4.32
4.58
4.90
5.15
5.20
5.04
4.71
4.31
3.89
3.44
2.83
2.00
0.90
-0.38
-1.70
-2.89
-3.88
-4.66
-5.31
-5.97
-6.71
-7.58
-8.52
-9.41
-10.07
-10.28
-9.84
-8.66
-6.76
-4.32
-1.67
0.85
2.92
4.39
5.23
5.54
5.45
5.07
4.46
3.64
2.67
1.63
0.68
-0.06
-0.49
-0.60
-0.46
-0.17
0.10
0.27
0.27
0.11
-0.12
-0.31
-0.38
-0.28
-0.07
0.20
0.41
0.51
0.45
0.24
-0.14
-0.65
-1.26
-1.95
-2.66
-3.35
-4.03
-4.70
-5.35
-5.99
-6.65
-7.38
-8.19
-9.02
-9.65
-9.82
-9.26
-7.88
-5.78
-3.25
-0.64
1.79
3.87
5.56
6.86
7.73
8.15
8.07
7.54
6.70
5.77
4.96
4.45
4.33
4.57
5.05
5.62
6.18
6.64
6.96
7.14
7.15
7.00
6.70
6.30
5.84
5.33
4.71
3.87
2.75
1.35
-0.16
-1.57
-2.70
-3.51
-4.11
-4.64
-5.25
-5.98
-6.76
-7.51
-8.21
-8.86
-9.49
-10.02
-10.32
-10.14
-9.28
-7.68
-5.44
-2.85
-0.24
2.08
3.92
5.21
5.97
6.27
6.19
5.84
5.36
4.91
4.64
4.66
4.97
5.45
5.90
6.15
6.12
5.91
5.70
5.70
6.00
6.60
7.33
8.02
8.52
8.78
8.78
8.53
8.00
7.07
5.73
4.00
2.03
0.06
-1.73
-3.26
-4.63
-6.02
-7.62
-9.50
-11.56
-13.53
-15.05
-15.79
-15.52
-14.16
-11.81
-8.74
-5.31
-1.91
1.12
3.55
5.24
6.15
6.35
5.99
5.28
4.49
3.83
3.46
3.39
3.54
3.78
4.03
4.31
4.68
5.15
5.69
6.18
6.50
6.60
6.51
6.31
6.05
5.74
5.31
4.67
3.77
2.63
1.33
-0.00
-1.26
-2.40
-3.43
-4.37
-5.26
-6.13
-7.00
-7.87
-8.75
-9.60
-10.31
-10.76
-10.75
-10.12
-8.78
-6.78
-4.29
-1.60
0.98
3.19
4.85
5.91
6.45
6.61
6.56
6.44
6.33
6.25
6.16
6.07
5.98
5.95
6.03
6.27
6.66
7.16
7.67
8.11
8.37
8.40
8.12
7.53
6.64
5.57
4.44
3.36
2.44
1.66
0.98
0.30
-0.47
-1.40
-2.48
-3.67
-4.83
-5.88
-6.73
-7.43
-8.07
-8.81
-9.73
-10.73
-11.60
-12.02
-11.71
-10.60
-8.81
-6.61
-4.34
-2.24
-0.42
1.13
2.46
3.57
4.37
4.72
4.53
3.86
2.93
2.06
1.56
1.53
1.91
2.49
3.09
3.61
4.10
4.62
5.17
5.66
5.90
5.79
5.29
4.47
3.47
2.39
1.32
0.28
-0.71
-1.66
-2.55
-3.40
-4.20
-4.97
-5.73
-6.51
-7.36
-8.31
-9.34
-10.32
-11.03
-11.22
-10.71
-9.42
-7.46
-5.05
-2.48
-0.00
2.20
3.99
5.29
6.07
6.32
6.14
5.64
4.97
4.29
3.72
3.29
3.01
2.86
2.86
3.05
3.48
4.10
4.82
5.50
5.99
6.21
6.16
5.91
5.54
5.11
4.61
4.01
3.24
2.26
1.07
-0.25
-1.63
-2.94
-4.07
-4.96
-5.61
-6.11
-6.58
-7.18
-8.03
-9.16
-10.50
-11.87
-12.99
-13.63
-13.56
-12.69
-11.04
-8.76
-6.07
-3.25
-0.59
1.67
3.37
4.46
5.00
5.10
4.91
4.58
4.22
3.90
3.67
3.55
3.58
3.77
4.15
4.72
5.47
6.32
7.17
7.88
8.30
8.36
8.03
7.39
6.57
5.72
4.93
4.22
3.53
2.76
1.86
0.84
-0.21
-1.16
-1.94
-2.55
-3.11
-3.76
-4.58
-5.61
-6.78
-8.02
-9.25
-10.43
-11.47
-12.23
-12.52
-12.15
-11.02
-9.17
-6.82
-4.30
-1.94
0.05
1.59
2.74
3.62
4.31
4.79
5.00
4.89
4.45
3.79
3.07
2.45
2.05
1.89
1.92
2.09
2.34
2.64
2.94
3.17
3.25
3.13
2.81
2.38
1.92
1.48
1.04
0.51
-0.19
-1.04
-1.96
-2.78
-3.42
-3.87
-4.23
-4.64
-5.20
-5.95
-6.83
-7.76
-8.65
-9.36
-9.72
-9.56
-8.78
-7.34
-5.41
-3.24
-1.08
0.86
2.51
3.85
4.89
5.60
5.94
5.88
5.46
4.80
4.09
3.48
3.08
2.91
2.93
3.10
3.39
3.74
4.10
4.46
4.77
5.01
5.18
5.24
5.14
4.84
4.29
3.50
2.48
1.32
0.09
-1.14
-2.32
-3.43
-4.44
-5.33
-6.09
-6.73
-7.29
-7.85
-8.48
-9.22
-10.04
-10.81
-11.30
-11.28
-10.56
-9.09
-6.97
-4.47
-1.90
0.46
2.42
3.89
4.89
5.46
5.69
5.65
5.42
5.07
4.66
4.25
3.92
3.77
3.86
4.22
4.75
5.32
5.77
6.05
6.15
6.15
6.08
5.92
5.62
5.11
4.35
3.33
2.10
0.70
-0.80
-2.25
-3.48
-4.32
-4.70
-4.75
-4.75
-5.02
-5.77
-7.02
-8.57
-10.07
-11.23
-11.84
-11.78
-11.07
-9.76
-7.97
-5.85
-3.62
-1.52
0.26
1.60
2.48
2.95
3.11
3.03
2.77
2.42
2.06
1.85
1.90
2.27
2.90
3.67
4.45
5.12
5.60
5.88
5.91
5.70
5.20
4.47
3.58
2.67
1.84
1.15
0.58
0.02
-0.60
-1.33
-2.15
-3.00
-3.86
-4.70
-5.57
-6.51
-7.50
-8.48
-9.30
-9.79
-9.77
-9.16
-7.95
-6.25
-4.24
-2.12
-0.08
1.70
3.10
4.04
4.51
4.59
4.42
4.13
3.84
3.61
3.50
3.53
3.71
4.10
4.66
5.31
5.89
6.22
6.16
5.68
4.88
3.93
3.05
2.34
1.85
1.46
1.05
0.49
-0.24
-1.06
-1.87
-2.56
-3.12
-3.65
-4.27
-5.15
-6.35
-7.86
-9.57
-11.30
-12.78
-13.73
-13.93
-13.26
-11.74
-9.52
-6.86
-4.00
-1.15
1.52
3.87
5.77
7.09
7.76
7.84
7.46
6.86
6.27
5.87
5.72
5.81
6.06
6.37
6.63
6.80
6.90
6.98
7.09
7.23
7.33
7.28
6.99
6.41
5.58
4.60
3.57
2.57
1.63
0.72
-0.18
-1.11
-2.10
-3.16
-4.29
-5.49
-6.78
-8.15
-9.57
-10.93
-12.02
-12.58
-12.41
-11.44
-9.80
-7.78
-5.67
-3.66
-1.79
0.00
1.73
3.32
4.60
5.42
5.74
5.67
5.45
5.28
5.26
5.36
5.47
5.51
5.42
5.25
5.04
4.84
4.66
4.47
4.25
3.97
3.61
3.15
2.60
2.00
1.41
0.89
0.46
0.08
-0.33
-0.88
-1.63
-2.59
-3.75
-5.07
-6.49
-7.92
-9.17
-10.04
-10.32
-9.89
-8.75
-7.04
-4.97
-2.78
-0.63
1.38
3.20
4.79
6.09
6.99
7.40
7.27
6.67
5.80
4.94
4.34
4.12
4.25
4.51
4.66
4.58
4.25
3.79
3.33
2.93
2.55
2.05
1.38
0.56
-0.26
-0.86
-1.12
-1.06
-0.86
-0.80
-1.07
-1.76
-2.77
-3.94
-5.11
-6.21
-7.26
-8.30
-9.31
-10.13
-10.55
-10.33
-9.37
-7.67
-5.44
-2.94
-0.44
1.83
3.76
5.30
6.49
7.36
7.95
8.25
8.28
8.01
7.52
6.92
6.36
5.94
5.73
5.66
5.66
5.63
5.53
5.35
5.09
4.78
4.40
3.96
3.47
2.98
2.53
2.15
1.84
1.52
1.09
0.46
-0.39
-1.41
-2.47
-3.46
-4.35
-5.22
-6.20
-7.39
-8.76
-10.12
-11.19
-11.72
-11.54
-10.66
-9.17
-7.22
-4.93
-2.43
0.15
2.61
4.66
6.08
6.68
6.48
5.70
4.67
3.76
3.19
2.99
3.00
3.02
2.88
2.60
2.35
2.35
2.71
3.37
4.11
4.68
4.91
4.79
4.44
4.01
3.58
3.16
2.68
2.07
1.29
0.31
-0.85
-2.16
-3.53
-4.89
-6.17
-7.32
-8.32
-9.08
-9.47
-9.32
-8.46
-6.85
-4.63
-2.06
0.48
2.69
4.36
5.42
5.85
5.72
5.13
4.27
3.34
2.58
2.18
2.16
2.50
3.04
3.64
4.19
4.64
5.01
5.33
5.62
5.83
5.92
5.81
5.46
4.88
4.09
3.20
2.25
1.29
0.29
-0.74
-1.80
-2.82
-3.71
-4.42
-4.97
-5.49
-6.18
-7.18
-8.47
-9.86
-11.00
-11.49
-11.07
-9.70
-7.60
-5.15
-2.77
-0.77
0.75
1.85
2.67
3.32
3.82
4.13
4.21
4.13
3.99
3.94
4.08
4.42
4.87
5.35
5.77
6.07
6.27
6.40
6.50
6.58
6.61
6.54
6.29
5.81
5.09
4.17
3.13
2.04
0.96
-0.10
-1.14
-2.13
-3.04
-3.85
-4.59
-5.29
-6.03
-6.85
-7.75
-8.67
-9.46
-9.96
-10.00
-9.43
-8.24
-6.52
-4.45
-2.31
-0.34
1.29
2.50
3.30
3.76
3.97
4.02
4.00
3.94
3.88
3.81
3.69
3.57
3.48
3.49
3.64
3.90
4.16
4.33
4.33
4.16
3.85
3.43
2.91
2.28
1.54
0.73
-0.08
-0.86
-1.58
-2.29
-3.03
-3.84
-4.68
-5.53
-6.36
-7.16
-8.01
-8.90
-9.74
-10.34
-10.46
-9.88
-8.55
-6.58
-4.20
-1.73
0.55
2.48
3.98
5.08
5.79
6.10
5.98
5.47
4.66
3.75
2.99
2.60
2.66
3.12
3.80
4.46
4.93
5.12
5.05
4.80
4.48
4.13
3.79
3.46
3.15
2.85
2.50
2.07
1.48
0.72
-0.20
-1.21
-2.24
-3.19
-4.03
-4.80
-5.56
-6.43
-7.46
-8.63
-9.84
-10.91
-11.59
-11.71
-11.15
-9.92
-8.13
-5.98
-3.69
-1.50
0.43
1.95
3.02
3.65
3.92
3.96
3.90
3.83
3.81
3.83
3.89
3.99
4.16
4.44
4.81
5.24
5.63
5.88
5.92
5.76
5.46
5.08
4.68
4.27
3.85
3.38
2.83
2.18
1.43
0.59
-0.27
-1.11
-1.88
-2.60
-3.32
-4.05
-4.82
-5.57
-6.31
-7.02
-7.75
-8.49
-9.17
-9.62
-9.56
-8.82
-7.33
-5.22
-2.80
-0.43
1.63
3.25
4.43
5.20
5.58
5.60
5.25
4.64
3.89
3.21
2.73
2.53
2.58
2.80
3.10
3.40
3.67
3.87
4.02
4.15
4.32
4.55
4.83
5.05
5.03
4.61
3.74
2.47
1.00
-0.47
-1.78
-2.89
-3.82
-4.67
-5.55
-6.52
-7.61
-8.77
-9.90
-10.85
-11.41
-11.41
-10.73
-9.39
-7.53
-5.40
-3.28
-1.39
0.13
1.23
1.97
2.41
2.59
2.53
2.27
1.89
1.53
1.37
1.54
2.07
2.89
3.86
4.81
5.67
6.38
6.92
7.30
7.46
7.35
6.96
6.28
5.35
4.21
2.95
1.65
0.40
-0.71
-1.60
-2.28
-2.77
-3.17
-3.57
-4.12
-4.89
-5.96
-7.26
-8.63
-9.83
-10.55
-10.59
-9.84
-8.39
-6.46
-4.29
-2.14
-0.19
1.45
2.70
3.55
4.02
4.23
4.27
4.27
4.28
4.31
4.33
4.32
4.30
4.33
4.47
4.76
5.17
5.60
5.96
6.14
6.07
5.73
5.17
4.47
3.74
3.08
2.51
1.99
1.42
0.73
-0.13
-1.08
-2.05
-2.96
-3.81
-4.65
-5.62
-6.76
-8.05
-9.34
-10.43
-11.10
-11.22
-10.74
-9.71
-8.23
-6.44
-4.47
-2.46
-0.56
1.10
2.34
3.09
3.37
3.32
3.18
3.18
3.46
3.97
4.55
4.97
5.09
4.91
4.57
4.27
4.18
4.31
4.57
4.77
4.77
4.54
4.12
3.59
3.05
2.50
1.93
1.25
0.47
-0.41
-1.30
-2.14
-2.94
-3.78
-4.78
-6.01
-7.43
-8.87
-10.03
-10.67
-10.60
-9.83
-8.46
-6.67
-4.65
-2.58
-0.60
1.17
2.63
3.74
4.46
4.81
4.82
4.53
4.01
3.32
2.59
1.96
1.55
1.48
1.78
2.39
3.17
3.94
4.54
4.91
5.06
5.06
4.98
4.85
4.59
4.11
3.34
2.29
1.10
-0.06
-1.05
-1.84
-2.48
-3.09
-3.76
-4.54
-5.43
-6.41
-7.45
-8.49
-9.42
-10.08
-10.28
-9.90
-8.88
-7.29
-5.24
-2.87
-0.40
1.96
3.94
5.28
5.85
5.72
5.16
4.51
4.05
3.92
4.04
4.27
4.50
4.72
4.99
5.34
5.74
6.10
6.27
6.20
5.93
5.59
5.31
5.13
4.98
4.72
4.23
3.45
2.42
1.27
0.10
-0.99
-1.95
-2.81
-3.59
-4.30
-4.97
-5.62
-6.33
-7.17
-8.16
-9.27
-10.29
-10.91
-10.80
-9.76
-7.83
-5.30
-2.61
-0.21
1.64
2.88
3.60
4.00
4.16
4.14
3.91
3.48
2.93
2.39
2.04
1.99
2.28
2.87
3.62
4.36
4.95
5.29
5.35
5.16
4.74
4.18
3.52
2.82
2.13
1.47
0.83
0.17
-0.52
-1.28
-2.05
-2.79
-3.41
-3.92
-4.35
-4.78
-5.31
-6.01
-6.88
-7.86
-8.78
-9.43
-9.55
-8.97
-7.64
-5.66
-3.31
-0.91
1.26
2.99
4.23
4.98
5.31
5.24
4.85
4.20
3.44
2.72
2.23
2.09
2.34
2.92
3.71
4.55
5.34
5.96
6.37
6.52
6.46
6.25
5.98
5.69
5.35
4.88
4.15
3.10
1.78
0.34
-1.04
-2.18
-3.02
-3.59
-3.96
-4.27
-4.67
-5.28
-6.16
-7.36
-8.77
-10.21
-11.44
-12.18
-12.27
-11.66
-10.42
-8.70
-6.67
-4.52
-2.44
-0.57
0.98
2.18
3.04
3.65
4.11
4.51
4.92
5.33
5.72
6.05
6.28
6.37
6.34
6.21
6.06
5.96
5.98
6.10
6.27
6.33
6.16
5.73
5.10
4.42
3.80
3.23
2.62
1.84
0.82
-0.36
-1.51
-2.46
-3.11
-3.56
-3.97
-4.57
-5.46
-6.64
-7.97
-9.21
-10.06
-10.25
-9.61
-8.17
-6.14
-3.84
-1.61
0.32
1.88
3.08
3.95
4.49
4.66
4.45
3.86
3.03
2.15
1.47
1.15
1.26
1.68
2.19
2.54
2.61
2.48
2.34
2.42
2.78
3.24
3.51
3.27
2.43
1.14
-0.30
-1.55
-2.44
-2.98
-3.29
-3.54
-3.82
-4.20
-4.73
-5.45
-6.42
-7.59
-8.84
-9.91
-10.53
-10.49
-9.67
-8.10
-5.87
-3.22
-0.42
2.21
4.33
5.72
6.35
6.34
5.95
5.40
4.81
4.22
3.62
3.07
2.72
2.74
3.22
4.07
5.08
5.99
6.62
6.89
6.88
6.67
6.33
5.89
5.36
4.75
4.07
3.35
2.60
1.81
0.97
0.12
-0.73
-1.54
-2.30
-3.06
-3.88
-4.81
-5.92
-7.22
-8.65
-10.09
-11.32
-12.11
-12.21
-11.50
-10.01
-7.96
-5.66
-3.46
-1.56
-0.05
1.10
1.91
2.40
2.52
2.30
1.84
1.34
1.03
1.12
1.62
2.43
3.36
4.26
5.06
5.77
6.45
7.09
7.65
8.01
8.06
7.72
7.01
6.02
4.90
3.83
2.88
2.04
1.22
0.33
-0.63
-1.54
-2.23
-2.56
-2.53
-2.31
-2.23
-2.61
-3.64
-5.25
-7.18
-9.03
-10.41
-11.08
-10.96
-10.08
-8.57
-6.58
-4.29
-1.92
0.32
2.24
3.72
4.73
5.30
5.48
5.33
4.90
4.25
3.46
2.68
2.04
1.72
1.82
2.34
3.18
4.15
5.02
5.63
5.91
5.88
5.63
5.26
4.77
4.13
3.31
2.30
1.17
0.09
-0.84
-1.52
-1.98
-2.33
-2.70
-3.24
-4.04
-5.13
-6.45
-7.87
-9.16
-10.08
-10.42
-10.06
-9.03
-7.46
-5.55
-3.48
-1.40
0.59
2.38
3.86
4.92
5.51
5.64
5.45
5.10
4.72
4.39
4.13
3.92
3.78
3.80
4.05
4.56
5.28
6.05
6.72
7.15
7.34
7.30
7.08
6.73
6.22
5.54
4.70
3.71
2.60
1.37
0.04
-1.34
-2.69
-3.94
-5.12
-6.33
-7.71
-9.37
-11.23
-13.02
-14.39
-15.04
-14.88
-14.04
-12.74
-11.20
-9.49
-7.61
-5.56
-3.45
-1.51
0.00
0.89
1.17
1.04
0.82
0.78
1.07
1.67
2.43
3.19
3.85
4.42
4.98
5.64
6.45
7.36
8.31
9.16
9.83
10.25
10.38
10.20
9.72
8.91
7.81
6.47
4.94
3.30
1.62
-0.07
-1.74
-3.43
-5.21
-7.13
-9.17
-11.18
-12.86
-13.86
-13.87
-12.80
-10.79
-8.20
-5.46
-2.94
-0.88
0.66
1.71
2.37
2.71
2.83
2.77
2.63
2.46
2.36
2.35
2.43
2.59
2.82
3.16
3.72
4.55
5.66
6.95
8.20
9.20
9.77
9.85
9.51
8.84
7.98
6.98
5.88
4.70
3.47
2.24
1.04
-0.14
-1.33
-2.61
-4.03
-5.57
-7.12
-8.52
-9.58
-10.13
-10.09
-9.46
-8.32
-6.78
-4.93
-2.87
-0.68
1.51
3.55
5.23
6.35
6.74
6.41
5.48
4.24
2.94
1.84
1.05
0.60
0.45
0.56
0.92
1.49
2.23
3.03
3.72
4.19
4.35
4.20
3.79
3.21
2.46
1.57
0.53
-0.61
-1.78
-2.88
-3.83
-4.64
-5.38
-6.16
-7.04
-7.96
-8.79
-9.36
-9.48
-9.06
-8.09
-6.61
-4.74
-2.62
-0.41
1.71
3.55
4.97
5.88
6.27
6.22
5.85
5.36
4.86
4.49
4.28
4.19
4.17
4.16
4.14
4.15
4.22
4.34
4.45
4.43
4.17
3.66
2.92
2.08
1.22
0.41
-0.39
-1.25
-2.17
-3.11
-3.97
-4.69
-5.30
-5.94
-6.75
-7.81
-9.02
-10.18
-11.02
-11.29
-10.87
-9.76
-8.08
-6.01
-3.80
-1.67
0.18
1.62
2.61
3.18
3.42
3.42
3.30
3.16
3.13
3.30
3.69
4.23
4.80
5.24
5.47
5.51
5.45
5.39
5.41
5.49
5.57
5.54
5.32
4.88
4.24
3.39
2.35
1.13
-0.19
-1.48
-2.59
-3.44
-4.10
-4.73
-5.55
-6.64
-7.88
-8.95
-9.51
-9.35
-8.45
-7.01
-5.28
-3.46
-1.65
0.09
1.68
3.01
3.92
4.32
4.22
3.77
3.14
2.56
2.15
1.99
2.05
2.24
2.46
2.62
2.72
2.83
3.04
3.39
3.80
4.11
4.07
3.58
2.67
1.56
0.48
-0.36
-0.92
-1.30
-1.65
-2.09
-2.70
-3.45
-4.32
-5.26
-6.23
-7.15
-7.91
-8.41
-8.52
-8.19
-7.38
-6.11
-4.48
-2.64
-0.76
0.97
2.43
3.57
4.41
4.98
5.28
5.28
4.93
4.32
3.62
3.07
2.87
3.07
3.57
4.17
4.66
4.94
5.01
4.94
4.80
4.61
4.38
4.07
3.73
3.37
3.03
2.67
2.21
1.55
0.63
-0.49
-1.68
-2.80
-3.76
-4.62
-5.53
-6.62
-7.91
-9.26
-10.37
-10.97
-10.88
-10.08
-8.70
-6.90
-4.86
-2.76
-0.73
1.09
2.56
3.56
4.08
4.18
4.00
3.74
3.52
3.44
3.50
3.66
3.91
4.21
4.58
5.00
5.44
5.84
6.16
6.36
6.43
6.32
6.00
5.44
4.67
3.78
2.93
2.21
1.66
1.19
0.68
0.04
-0.76
-1.67
-2.63
-3.59
-4.53
-5.46
-6.41
-7.40
-8.45
-9.59
-10.71
-11.61
-12.01
-11.63
-10.37
-8.36
-5.89
-3.36
-1.06
0.86
2.35
3.43
4.09
4.32
4.16
3.74
3.27
2.91
2.72
2.65
2.60
2.53
2.51
2.67
3.05
3.58
4.03
4.22
4.07
3.65
3.19
2.81
2.57
2.35
1.98
1.36
0.46
-0.63
-1.78
-2.92
-3.98
-4.95
-5.85
-6.71
-7.57
-8.48
-9.46
-10.44
-11.36
-12.13
-12.67
-12.90
-12.78
-12.27
-11.37
-10.13
-8.65
-7.07
-5.53
-4.13
-2.97
-2.05
-1.37
-0.85
-0.36
0.28
1.28
2.77
4.76
7.09
9.53
11.79
13.69
15.23
16.53
17.76
19.09
20.62
22.32
24.12
25.87
27.35
28.37
28.79
28.57
27.75
26.50
24.94
23.16
21.22
19.17
17.07
14.98
12.85
10.53
7.78
4.38
0.29
-4.28
-8.95
-13.22
-16.69
-19.10
-20.31
-20.35
-19.38
-17.71
-15.88
-14.53
-14.19
-15.10
-17.08
-19.58
-21.93
-23.60
-24.40
-24.50
-24.22
-23.88
-23.59
-23.28
-22.79
-22.02
-20.99
-19.79
-18.46
-17.00
-15.31
-13.30
-10.98
-8.51
-6.14
-4.11
-2.52
-1.29
-0.23
0.92
2.26
3.76
5.21
6.37
7.03
7.16
6.86
6.33
5.76
5.27
4.88
4.62
4.57
4.87
5.70
7.17
9.17
11.46
13.73
15.72
17.36
18.69
19.82
20.75
21.40
21.60
21.29
20.50
19.41
18.20
16.98
15.74
14.40
12.87
11.14
9.25
7.32
5.44
3.69
2.05
0.47
-1.14
-2.83
-4.60
-6.36
-7.96
-9.28
-10.29
-11.05
-11.69
-12.35
-13.09
-13.90
-14.76
-15.61
-16.43
-17.15
-17.65
-17.73
-17.19
-15.94
-14.07
-11.77
-9.35
-7.04
-4.98
-3.19
-1.66
-0.40
0.58
1.22
1.53
1.60
1.55
1.55
1.70
2.01
2.46
2.96
3.48
3.99
4.47
4.95
5.40
5.80
6.08
6.14
5.91
5.37
4.58
3.62
2.60
1.59
0.62
-0.33
-1.26
-2.18
-3.06
-3.88
-4.61
-5.14
-5.36
-5.13
-4.39
-3.21
-1.82
-0.53
0.44
0.98
1.20
1.31
1.53
1.96
2.55
3.20
3.77
4.19
4.40
4.31
3.87
3.01
1.81
0.49
-0.65
-1.32
-1.39
-0.93
-0.21
0.48
0.94
1.07
0.86
0.37
-0.36
-1.24
-2.15
-2.94
-3.49
-3.77
-3.93
-4.15
-4.57
-5.19
-5.86
-6.37
-6.55
-6.31
-5.64
-4.55
-3.08
-1.28
0.69
2.64
4.34
5.68
6.65
7.29
7.65
7.67
7.26
6.37
5.10
3.69
2.38
1.34
0.56
-0.07
-0.65
-1.21
-1.68
-2.03
-2.29
-2.59
-3.09
-3.86
-4.83
-5.87
-6.86
-7.71
-8.45
-9.08
-9.62
-10.08
-10.52
-11.01
-11.62
-12.34
-12.99
-13.30
-13.00
-11.98
-10.33
-8.30
-6.17
-4.15
-2.29
-0.60
0.94
2.30
3.39
4.15
4.58
4.78
4.90
5.11
5.52
6.09
6.69
7.17
7.43
7.53
7.61
7.83
8.26
8.80
9.24
9.43
9.31
8.96
8.48
7.94
7.29
6.46
5.40
4.20
2.99
1.88
0.91
0.01
-0.90
-1.82
-2.66
-3.22
-3.34
-2.94
-2.09
-0.94
0.32
1.51
2.51
3.24
3.68
3.85
3.81
3.63
3.35
3.03
2.68
2.34
2.09
1.98
2.09
2.37
2.75
3.11
3.37
3.52
3.61
3.70
3.80
3.85
3.75
3.42
2.86
2.13
1.33
0.52
-0.29
-1.10
-1.96
-2.90
-3.97
-5.21
-6.65
-8.26
-9.90
-11.32
-12.23
-12.41
-11.78
-10.48
-8.79
-7.01
-5.35
-3.89
-2.62
-1.53
-0.68
-0.21
-0.20
-0.64
-1.33
-2.00
-2.39
-2.40
-2.06
-1.54
-0.96
-0.39
0.18
0.80
1.48
2.15
2.72
3.08
3.19
3.15
3.09
3.12
3.32
3.63
3.96
4.18
4.22
4.06
3.67
3.05
2.17
1.05
-0.15
-1.19
-1.76
-1.61
-0.68
0.92
2.94
5.08
7.08
8.74
9.91
10.52
10.58
10.16
9.40
8.44
7.36
6.19
4.93
3.65
2.43
1.43
0.79
0.54
0.59
0.74
0.79
0.64
0.29
-0.18
-0.67
-1.15
-1.65
-2.20
-2.82
-3.45
-4.04
-4.57
-5.11
-5.81
-6.77
-8.00
-9.37
-10.69
-11.76
-12.45
-12.69
-12.40
-11.53
-10.02
-7.97
-5.54
-3.07
-0.88
0.81
1.94
2.57
2.86
2.96
2.95
2.89
2.82
2.83
2.96
3.25
3.63
3.97
4.17
4.14
3.93
3.60
3.26
2.95
2.65
2.31
1.87
1.31
0.68
0.02
-0.65
-1.32
-2.01
-2.74
-3.52
-4.37
-5.32
-6.39
-7.62
-8.96
-10.27
-11.29
-11.75
-11.41
-10.21
-8.26
-5.79
-3.07
-0.37
2.17
4.44
6.37
7.92
9.01
9.64
9.85
9.73
9.42
9.05
8.70
8.44
8.34
8.43
8.72
9.11
9.46
9.57
9.31
8.65
7.72
6.73
5.88
5.27
4.84
4.45
3.95
3.26
2.39
1.45
0.55
-0.30
-1.13
-2.03
-3.07
-4.30
-5.67
-7.08
-8.41
-9.54
-10.34
-10.74
-10.72
-10.28
-9.47
-8.34
-6.89
-5.15
-3.15
-1.00
1.12
2.99
4.41
5.28
5.64
5.61
5.35
4.97
4.55
4.13
3.79
3.61
3.68
4.05
4.67
5.44
6.24
6.97
7.58
8.04
8.34
8.40
8.14
7.50
6.49
5.25
4.00
2.97
2.29
1.95
1.84
1.76
1.57
1.19
0.63
-0.06
-0.84
-1.67
-2.56
-3.53
-4.63
-5.91
-7.41
-9.09
-10.78
-12.23
-13.10
-13.14
-12.24
-10.52
-8.30
-5.98
-3.89
-2.18
-0.83
0.30
1.35
2.34
3.17
3.72
3.92
3.84
3.68
3.67
3.97
4.57
5.32
6.02
6.56
6.92
7.22
7.57
8.05
8.62
9.13
9.45
9.49
9.25
8.79
8.19
7.46
6.61
5.64
4.61
3.66
2.91
2.40
2.05
1.70
1.14
0.29
-0.83
-2.10
-3.40
-4.65
-5.84
-6.94
-7.84
-8.37
-8.31
-7.56
-6.23
-4.55
-2.86
-1.41
-0.33
0.42
0.92
1.25
1.41
1.37
1.13
0.74
0.32
-0.03
-0.22
-0.23
-0.12
0.07
0.26
0.45
0.67
0.95
1.29
1.63
1.84
1.78
1.36
0.61
-0.34
-1.32
-2.18
-2.90
-3.52
-4.08
-4.61
-5.09
-5.48
-5.78
-6.01
-6.21
-6.36
-6.43
-6.34
-6.07
-5.63
-5.03
-4.25
-3.28
-2.07
-0.63
0.99
2.71
4.43
6.10
7.69
9.13
10.33
11.19
11.58
11.47
10.89
9.96
8.87
7.76
6.79
5.99
5.37
4.89
4.48
4.13
3.79
3.45
3.09
2.70
2.29
1.85
1.39
0.88
0.26
-0.49
-1.37
-2.32
-3.23
-3.99
-4.56
-4.97
-5.36
-5.87
-6.60
-7.56
-8.63
-9.64
-10.42
-10.84
-10.83
-10.36
-9.42
-8.08
-6.41
-4.56
-2.74
-1.13
0.17
1.12
1.78
2.22
2.45
2.46
2.25
1.91
1.57
1.38
1.40
1.63
2.02
2.49
3.04
3.65
4.23
4.63
4.65
4.14
3.10
1.70
0.19
-1.20
-2.39
-3.43
-4.42
-5.48
-6.64
-7.89
-9.17
-10.43
-11.61
-12.69
-13.63
-14.42
-15.03
-15.46
-15.67
-15.63
-15.27
-14.56
-13.49
-12.12
-10.56
-9.00
-7.58
-6.42
-5.56
-4.96
-4.55
-4.18
-3.73
-3.11
-2.27
-1.22
-0.02
1.25
2.49
3.65
4.70
5.64
6.43
6.99
7.24
7.10
6.59
5.84
5.02
4.32
3.84
3.58
3.40
3.17
2.74
2.02
1.01
-0.24
-1.58
-2.83
-3.74
-4.10
-3.81
-2.93
-1.66
-0.32
0.83
1.63
2.06
2.18
2.09
1.84
1.43
0.84
0.12
-0.65
-1.36
-1.90
-2.23
-2.39
-2.42
-2.38
-2.27
-2.08
-1.81
-1.47
-1.14
-0.90
-0.81
-0.89
-1.06
-1.24
-1.37
-1.43
-1.51
-1.76
-2.26
-3.03
-3.98
-4.91
-5.66
-6.06
-6.04
-5.55
-4.55
-3.07
-1.20
0.87
2.86
4.53
5.77
6.59
7.11
7.43
7.56
7.46
7.05
6.38
5.57
4.83
4.28
3.97
3.84
3.80
3.78
3.75
3.74
3.72
3.63
3.36
2.88
2.20
1.43
0.69
0.02
-0.68
-1.53
-2.70
-4.23
-6.01
-7.83
-9.45
-10.66
-11.33
-11.42
-10.98
-10.11
-8.97
-7.76
-6.71
-5.96
-5.56
-5.47
-5.58
-5.82
-6.13
-6.56
-7.14
-7.98
-9.10
-10.52
-12.15
-13.83
-15.35
-16.49
-17.05
-16.97
-16.31
-15.20
-13.75
-12.05
-10.07
-7.79
-5.22
-2.43
0.43
3.23
5.83
8.19
10.25
11.91
13.02
13.46
13.19
12.37
11.32
10.46
10.10
10.38
11.17
12.21
13.19
13.89
14.22
14.15
13.75
13.09
12.28
11.46
10.78
10.34
10.17
10.19
10.28
10.32
10.24
10.02
9.66
9.14
8.43
7.53
6.49
5.41
4.43
3.64
3.02
2.46
1.79
0.89
-0.29
-1.69
-3.17
-4.56
-5.72
-6.52
-6.90
-6.82
-6.26
-5.25
-3.85
-2.19
-0.41
1.34
2.92
4.25
5.22
5.78
5.89
5.56
4.96
4.31
3.88
3.87
4.30
5.02
5.80
6.37
6.61
6.53
6.22
5.85
5.54
5.34
5.22
5.05
4.69
4.03
3.08
1.98
0.92
0.08
-0.51
-0.97
-1.52
-2.31
-3.37
-4.54
-5.60
-6.32
-6.56
-6.34
-5.71
-4.73
-3.45
-1.92
-0.21
1.49
3.01
4.15
4.84
5.12
5.09
4.86
4.47
3.92
3.26
2.56
2.02
1.82
2.08
2.71
3.51
4.20
4.62
4.74
4.70
4.64
4.63
4.60
4.43
4.01
3.33
2.46
1.57
0.76
0.08
-0.50
-1.03
-1.58
-2.15
-2.76
-3.43
-4.22
-5.17
-6.29
-7.47
-8.54
-9.29
-9.57
-9.27
-8.42
-7.11
-5.44
-3.55
-1.57
0.37
2.10
3.44
4.28
4.61
4.50
4.14
3.70
3.37
3.25
3.38
3.74
4.24
4.74
5.13
5.37
5.50
5.61
5.78
6.03
6.24
6.22
5.81
4.94
3.72
2.38
1.18
0.31
-0.20
-0.43
-0.54
-0.67
-0.93
-1.39
-2.08
-3.00
-4.08
-5.21
-6.30
-7.22
-7.85
-8.10
-7.88
-7.13
-5.83
-4.05
-1.96
0.17
2.07
3.53
4.46
4.92
5.04
4.97
4.83
4.67
4.50
4.35
4.24
4.21
4.28
4.45
4.63
4.76
4.80
4.79
4.80
4.91
5.15
5.44
5.65
5.62
5.29
4.66
3.84
2.96
2.12
1.35
0.65
0.02
-0.57
-1.11
-1.60
-2.10
-2.65
-3.30
-4.00
-4.67
-5.22
-5.66
-6.09
-6.67
-7.49
-8.54
-9.66
-10.54
-10.90
-10.55
-9.45
-7.77
-5.74
-3.64
-1.63
0.19
1.78
3.12
4.13
4.73
4.85
4.55
4.01
3.50
3.23
3.27
3.56
3.95
4.30
4.59
4.88
5.23
5.63
6.03
6.29
6.33
6.12
5.73
5.27
4.81
4.38
3.97
3.52
2.99
2.35
1.64
0.88
0.14
-0.52
-1.09
-1.55
-1.96
-2.37
-2.83
-3.39
-4.05
-4.78
-5.48
-6.04
-6.38
-6.55
-6.68
-7.00
-7.68
-8.73
-10.01
-11.18
-11.91
-11.93
-11.16
-9.64
-7.56
-5.16
-2.72
-0.49
1.32
2.59
3.32
3.58
3.48
3.17
2.79
2.47
2.33
2.43
2.76
3.26
3.78
4.22
4.52
4.70
4.84
4.97
5.08
5.10
4.96
4.63
4.14
3.60
3.09
2.68
2.37
2.12
1.85
1.50
1.03
0.42
-0.30
-1.08
-1.88
-2.63
-3.30
-3.87
-4.36
-4.84
-5.34
-5.91
-6.58
-7.32
-8.09
-8.78
-9.29
-9.48
-9.26
-8.57
-7.42
-5.89
-4.13
-2.31
-0.60
0.87
2.05
2.92
3.54
3.91
4.03
3.88
3.49
2.94
2.38
2.01
1.98
2.34
2.98
3.73
4.40
4.88
5.16
5.29
5.34
5.35
5.30
5.17
4.92
4.56
4.09
3.53
2.90
2.18
1.37
0.48
-0.44
-1.33
-2.09
-2.67
-3.09
-3.41
-3.74
-4.17
-4.75
-5.43
-6.13
-6.74
-7.22
-7.62
-8.07
-8.70
-9.57
-10.59
-11.55
-12.18
-12.24
-11.63
-10.39
-8.68
-6.71
-4.67
-2.72
-0.95
0.56
1.78
2.72
3.40
3.85
4.10
4.15
4.03
3.79
3.55
3.42
3.47
3.66
3.90
4.10
4.23
4.35
4.54
4.87
5.33
5.80
6.13
6.19
5.89
5.25
4.35
3.35
2.39
1.60
1.05
0.71
0.47
0.17
-0.28
-0.93
-1.72
-2.53
-3.25
-3.81
-4.25
-4.63
-5.05
-5.56
-6.18
-6.91
-7.73
-8.62
-9.50
-10.26
-10.72
-10.75
-10.24
-9.17
-7.57
-5.56
-3.31
-1.03
1.01
2.61
3.61
4.04
4.02
3.74
3.38
2.99
2.58
2.14
1.76
1.58
1.75
2.30
3.12
3.98
4.66
5.01
5.04
4.83
4.50
4.16
3.83
3.51
3.15
2.73
2.23
1.66
1.05
0.41
-0.23
-0.86
-1.47
-2.06
-2.62
-3.14
-3.63
-4.12
-4.67
-5.31
-6.04
-6.83
-7.60
-8.26
-8.74
-8.91
-8.65
-7.85
-6.49
-4.70
-2.75
-0.96
0.45
1.41
2.03
2.50
2.95
3.36
3.67
3.76
3.65
3.45
3.33
3.44
3.77
4.24
4.68
4.97
5.10
5.14
5.23
5.46
5.85
6.25
6.49
6.38
5.84
4.94
3.85
2.79
1.88
1.18
0.59
0.06
-0.49
-1.05
-1.56
-1.99
-2.35
-2.72
-3.17
-3.79
-4.56
-5.45
-6.38
-7.31
-8.26
-9.18
-10.02
-10.64
-10.90
-10.65
-9.84
-8.53
-6.84
-4.95
-3.02
-1.19
0.42
1.74
2.72
3.36
3.70
3.80
3.77
3.71
3.68
3.76
3.95
4.26
4.64
5.04
5.46
5.86
6.23
6.53
6.69
6.65
6.38
5.92
5.30
4.59
3.83
3.06
2.33
1.68
1.15
0.72
0.32
-0.20
-0.89
-1.76
-2.65
-3.40
-3.89
-4.16
-4.38
-4.76
-5.44
-6.39
-7.49
-8.54
-9.37
-9.91
-10.11
-9.92
-9.30
-8.23
-6.75
-4.99
-3.14
-1.38
0.16
1.46
2.52
3.35
3.96
4.35
4.50
4.42
4.18
3.89
3.70
3.69
3.90
4.27
4.65
4.93
5.04
4.96
4.75
4.50
4.27
4.07
3.89
3.67
3.37
2.93
2.33
1.53
0.58
-0.42
-1.36
-2.16
-2.79
-3.34
-3.92
-4.62
-5.46
-6.39
-7.28
-7.98
-8.36
-8.33
-7.85
-6.93
-5.63
-4.09
-2.48
-0.94
0.41
1.57
2.57
3.47
4.25
4.87
5.23
5.27
5.01
4.59
4.17
3.95
3.99
4.26
4.64
4.95
5.05
4.86
4.40
3.77
3.09
2.53
2.20
2.17
2.38
2.71
2.92
2.83
2.31
1.38
0.19
-1.07
-2.19
-3.04
-3.58
-3.86
-4.03
-4.26
-4.73
-5.48
-6.44
-7.39
-8.06
-8.20
-7.72
-6.65
-5.16
-3.49
-1.78
-0.15
1.35
2.63
3.59
4.15
4.27
4.04
3.63
3.22
2.94
2.83
2.83
2.86
2.89
2.91
2.97
3.09
3.26
3.44
3.57
3.63
3.59
3.49
3.34
3.15
2.87
2.44
1.80
0.88
-0.32
-1.73
-3.17
-4.45
-5.36
-5.83
-5.90
-5.76
-5.69
-5.95
-6.64
-7.69
-8.85
-9.77
-10.14
-9.77
-8.62
-6.80
-4.49
-1.93
0.59
2.80
4.43
5.37
5.63
5.40
4.92
4.41
3.98
3.68
3.49
3.46
3.66
4.18
4.96
5.84
6.55
6.89
6.78
6.33
5.77
5.33
5.13
5.13
5.20
5.16
4.92
4.43
3.75
2.92
1.97
0.90
-0.31
-1.64
-3.00
-4.31
-5.46
-6.43
-7.23
-7.94
-8.60
-9.22
-9.71
-9.95
-9.76
-9.05
-7.77
-6.04
-4.00
-1.89
0.09
1.79
3.12
4.02
4.48
4.55
4.29
3.82
3.30
2.89
2.70
2.75
3.00
3.38
3.80
4.18
4.47
4.64
4.69
4.65
4.57
4.49
4.41
4.28
4.00
3.49
2.69
1.62
0.39
-0.84
-1.90
-2.66
-3.13
-3.41
-3.67
-4.12
-4.89
-5.97
-7.21
-8.37
-9.19
-9.47
-9.11
-8.12
-6.62
-4.76
-2.72
-0.67
1.25
2.92
4.25
5.20
5.72
5.85
5.65
5.25
4.83
4.54
4.47
4.63
4.95
5.33
5.67
5.91
6.05
6.11
6.17
6.21
6.20
6.04
5.68
5.08
4.28
3.39
2.46
1.49
0.44
-0.77
-2.11
-3.49
-4.75
-5.76
-6.51
-7.16
-7.90
-8.87
-10.06
-11.31
-12.36
-12.96
-12.93
-12.20
-10.77
-8.74
-6.31
-3.72
-1.28
0.75
2.24
3.17
3.65
3.82
3.80
3.68
3.51
3.36
3.34
3.56
4.08
4.85
5.72
6.48
6.95
7.05
6.79
6.31
5.78
5.33
5.02
4.82
4.66
4.47
4.24
4.00
3.83
3.74
3.74
3.79
3.88
3.98
4.03
3.93
3.54
2.73
1.43
-0.34
-2.43
-4.68
-6.90
-8.89
-10.45
-11.36
-11.47
-10.69
-9.06
-6.75
-4.00
-1.07
1.81
4.45
6.67
8.32
9.25
9.41
8.89
7.91
6.79
5.85
5.30
5.22
5.55
6.12
6.74
7.28
7.66
7.90
8.08
8.26
8.46
8.64
8.69
8.49
7.94
7.03
5.80
4.36
2.82
1.30
-0.12
-1.38
-2.46
-3.36
-4.08
-4.64
-5.05
-5.38
-5.71
-6.17
-6.86
-7.83
-8.98
-10.13
-11.02
-11.34
-10.94
-9.76
-7.93
-5.69
-3.33
-1.11
0.77
2.25
3.35
4.15
4.70
5.03
5.15
5.12
5.04
5.06
5.28
5.75
6.38
7.03
7.56
7.87
7.97
7.90
7.70
7.35
6.80
6.02
5.01
3.87
2.71
1.62
0.60
-0.38
-1.35
-2.29
-3.12
-3.76
-4.14
-4.35
-4.49
-4.71
-5.09
-5.65
-6.33
-7.05
-7.76
-8.39
-8.87
-9.04
-8.78
-7.95
-6.52
-4.60
-2.36
-0.01
2.29
4.41
6.26
7.70
8.59
8.78
8.25
7.12
5.65
4.21
3.12
2.56
2.50
2.72
3.00
3.16
3.19
3.16
3.20
3.33
3.50
3.56
3.37
2.88
2.05
0.99
-0.23
-1.48
-2.66
-3.68
-4.51
-5.20
-5.83
-6.56
-7.48
-8.59
-9.74
-10.72
-11.28
-11.25
-10.57
-9.25
-7.42
-5.26
-2.96
-0.74
1.24
2.88
4.16
5.08
5.66
5.93
5.92
5.65
5.22
4.74
4.38
4.29
4.53
5.12
5.94
6.87
7.79
8.62
9.34
9.97
10.52
10.97
11.24
11.27
11.04
10.55
9.90
9.14
8.34
7.52
6.66
5.73
4.66
3.37
1.81
-0.01
-1.96
-3.84
-5.36
-6.30
-6.54
-6.08
-5.07
-3.72
-2.29
-1.03
-0.20
0.05
-0.34
-1.25
-2.46
-3.71
-4.78
-5.58
-6.11
-6.43
-6.63
-6.76
-6.86
-6.95
-7.01
-6.98
-6.77
-6.31
-5.63
-4.89
-4.34
-4.22
-4.67
-5.61
-6.77
-7.88
-8.71
-9.19
-9.41
-9.59
-9.92
-10.53
-11.41
-12.42
-13.31
-13.84
-13.79
-13.07
-11.67
-9.66
-7.19
-4.44
-1.60
1.10
3.46
5.32
6.60
7.37
7.75
7.91
7.95
7.89
7.71
7.37
6.86
6.23
5.55
4.90
4.35
3.92
3.62
3.42
3.28
3.16
2.99
2.67
2.15
1.41
0.49
-0.51
-1.46
-2.27
-2.91
-3.47
-4.06
-4.79
-5.69
-6.69
-7.64
-8.40
-8.86
-8.96
-8.65
-7.93
-6.79
-5.21
-3.27
-1.08
1.15
3.18
4.82
5.97
6.60
6.79
6.66
6.32
5.90
5.45
5.05
4.73
4.55
4.51
4.58
4.76
4.99
5.25
5.49
5.68
5.73
5.59
5.22
4.62
3.82
2.89
1.88
0.88
-0.06
-0.89
-1.55
-2.06
-2.45
-2.79
-3.11
-3.39
-3.54
-3.38
-2.71
-1.40
0.52
2.91
5.51
8.07
10.43
12.54
14.42
16.08
17.48
18.54
19.23
19.67
20.09
20.77
21.86
23.31
24.82
26.02
26.70
26.95
27.25
28.20
30.25
33.47
37.45
41.49
44.89
47.26
48.59
49.24
49.62
50.03
50.59
51.22
51.55
50.78
47.48
39.81
26.03
5.43
-20.94
-50.20
-78.34
-101.46
-117.11
-124.83
-126.03
-123.14
-118.69
-114.59
-111.81
-110.49
-110.07
-109.63
-108.20
-104.96
-99.50
-91.85
-82.40
-71.73
-60.56
-49.53
-39.20
-29.92
-21.70
-14.23
-6.91
0.76
8.93
17.08
24.11
28.64
29.63
26.83
21.07
14.00
7.48
2.91
0.73
0.42
0.94
1.30
1.06
0.34
-0.43
-0.93
-1.13
-1.25
-1.50
-1.85
-2.02
-1.67
-0.58
1.20
3.38
5.66
7.87
10.06
12.45
15.33
18.81
22.82
27.08
31.20
34.81
37.70
39.83
41.33
42.34
42.89
42.90
42.20
40.65
38.31
35.36
32.11
28.84
25.75
22.95
20.47
18.29
16.36
14.57
12.76
10.77
8.53
6.08
3.61
1.29
-0.74
-2.50
-4.05
-5.53
-7.02
-8.47
-9.81
-10.85
-11.45
-11.50
-11.01
-10.09
-8.90
-7.64
-6.45
-5.42
-4.63
-4.17
-4.14
-4.61
-5.55
-6.80
-8.14
-9.32
-10.27
-11.01
-11.69
-12.44
-13.26
-14.00
-14.41
-14.23
-13.33
-11.67
-9.33
-6.40
-3.03
0.65
4.46
8.18
11.56
14.38
16.49
17.91
18.72
19.08
19.06
18.72
18.02
16.94
15.54
13.91
12.19
10.47
8.82
7.25
5.82
4.61
3.74
3.30
3.31
3.69
4.33
5.12
5.98
6.85
7.62
8.12
8.20
7.77
6.90
5.77
4.66
3.81
3.31
3.16
3.23
3.41
3.59
3.70
3.71
3.60
3.43
3.24
3.16
3.21
3.37
3.49
3.38
2.88
1.93
0.64
-0.79
-2.14
-3.21
-3.95
-4.36
-4.53
-4.58
-4.63
-4.83
-5.27
-5.96
-6.80
-7.53
-7.81
-7.38
-6.08
-4.05
-1.63
0.72
2.61
3.85
4.49
4.70
4.68
4.51
4.16
3.62
2.94
2.29
1.89
1.91
2.36
3.05
3.74
4.22
4.37
4.21
3.81
3.28
2.68
2.06
1.44
0.80
0.11
-0.66
-1.56
-2.56
-3.63
-4.72
-5.79
-6.84
-7.86
-8.87
-9.92
-11.02
-12.23
-13.55
-14.90
-16.18
-17.20
-17.81
-17.89
-17.46
-16.62
-15.59
-14.57
-13.74
-13.17
-12.86
-12.74
-12.77
-12.88
-13.02
-13.13
-13.09
-12.70
-11.78
-10.14
-7.70
-4.47
-0.54
3.89
8.51
12.97
16.88
19.96
22.04
23.18
23.58
23.53
23.25
22.85
22.31
21.48
20.28
18.68
16.77
14.73
12.76
10.96
9.37
7.89
6.40
4.84
3.22
1.61
0.16
-1.03
-1.85
-2.24
-2.12
-1.50
-0.43
0.92
2.33
3.61
4.63
5.38
5.89
6.21
6.33
6.18
5.74
5.06
4.27
3.59
3.18
3.10
3.27
3.51
3.66
3.61
3.40
3.14
2.92
2.76
2.60
2.33
1.88
1.27
0.56
-0.20
-1.00
-1.93
-3.03
-4.28
-5.56
-6.70
-7.54
-8.09
-8.46
-8.83
-9.41
-10.24
-11.24
-12.17
-12.76
-12.76
-12.05
-10.67
-8.74
-6.51
-4.24
-2.17
-0.48
0.73
1.45
1.77
1.78
1.64
1.44
1.29
1.25
1.37
1.59
1.86
2.08
2.19
2.27
2.40
2.73
3.27
3.94
4.52
4.79
4.61
3.98
3.06
2.04
1.12
0.38
-0.16
-0.58
-1.02
-1.58
-2.34
-3.32
-4.48
-5.74
-7.00
-8.20
-9.22
-9.97
-10.30
-10.12
-9.35
-8.02
-6.25
-4.25
-2.22
-0.37
1.15
2.28
3.05
3.55
3.90
4.17
4.36
4.42
4.33
4.12
3.91
3.85
4.05
4.50
5.11
5.73
6.24
6.59
6.78
6.82
6.68
6.30
5.66
4.79
3.78
2.74
1.75
0.88
0.15
-0.43
-0.85
-1.15
-1.44
-1.84
-2.50
-3.48
-4.75
-6.18
-7.58
-8.79
-9.65
-10.07
-10.01
-9.44
-8.34
-6.77
-4.85
-2.72
-0.57
1.44
3.22
4.68
5.77
6.41
6.59
6.33
5.78
5.13
4.58
4.21
4.00
3.80
3.49
3.02
2.49
2.08
1.98
2.22
2.64
2.98
2.90
2.19
0.80
-1.16
-3.42
-5.70
-7.80
-9.61
-11.16
-12.51
-13.76
-14.99
-16.28
-17.65
-19.09
-20.46
-21.55
-22.11
-21.89
-20.79
-18.83
-16.21
-13.16
-9.90
-6.58
-3.22
0.23
3.82
7.54
11.26
14.78
17.85
20.25
21.86
22.67
22.71
22.08
20.91
19.34
17.57
15.86
14.42
13.43
12.91
12.77
12.81
12.86
12.79
12.52
12.05
11.42
10.64
9.75
8.76
7.69
6.53
5.33
4.13
3.00
2.00
1.15
0.43
-0.24
-0.93
-1.64
-2.30
-2.84
-3.23
-3.50
-3.81
-4.27
-4.94
-5.68
-6.27
-6.43
-5.95
-4.75
-2.90
-0.56
2.04
4.65
6.97
8.69
9.56
9.41
8.32
6.56
4.58
2.91
1.96
1.93
2.75
4.14
5.69
7.00
7.77
7.86
7.34
6.38
5.26
4.21
3.39
2.85
2.54
2.30
1.99
1.47
0.68
-0.37
-1.63
-2.95
-4.17
-5.16
-5.82
-6.18
-6.36
-6.54
-6.89
-7.52
-8.45
-9.52
-10.53
-11.19
-11.26
-10.64
-9.35
-7.60
-5.64
-3.71
-1.95
-0.37
1.02
2.22
3.18
3.81
4.10
4.12
4.01
3.94
4.01
4.21
4.46
4.64
4.68
4.57
4.42
4.37
4.55
4.98
5.54
6.02
6.18
5.91
5.24
4.34
3.46
2.74
2.17
1.65
1.02
0.21
-0.73
-1.67
-2.49
-3.15
-3.73
-4.39
-5.22
-6.25
-7.36
-8.42
-9.28
-9.88
-10.17
-10.12
-9.72
-8.93
-7.75
-6.26
-4.56
-2.81
-1.10
0.45
1.76
2.76
3.39
3.65
3.59
3.34
3.04
2.78
2.63
2.61
2.76
3.07
3.52
4.05
4.51
4.79
4.81
4.58
4.20
3.78
3.37
2.95
2.47
1.88
1.20
0.51
-0.09
-0.55
-0.87
-1.14
-1.46
-1.93
-2.60
-3.45
-4.43
-5.45
-6.43
-7.29
-7.95
-8.37
-8.46
-8.18
-7.50
-6.43
-5.06
-3.48
-1.85
-0.31
1.02
2.04
2.73
3.09
3.15
2.97
2.65
2.28
2.00
1.90
2.06
2.44
2.94
3.42
3.75
3.87
3.86
3.80
3.80
3.86
3.88
3.70
3.22
2.47
1.61
0.84
0.28
-0.10
-0.44
-0.94
-1.66
-2.54
-3.40
-4.06
-4.46
-4.70
-4.99
-5.51
-6.32
-7.34
-8.33
-9.06
-9.35
-9.12
-8.42
-7.35
-6.05
-4.62
-3.15
-1.70
-0.30
1.05
2.33
3.47
4.40
5.02
5.27
5.13
4.68
4.06
3.43
2.92
2.63
2.59
2.77
3.11
3.56
4.03
4.41
4.61
4.56
4.25
3.75
3.19
2.69
2.30
1.96
1.51
0.82
-0.18
-1.37
-2.55
-3.48
-4.06
-4.35
-4.53
-4.84
-5.42
-6.31
-7.40
-8.53
-9.50
-10.13
-10.31
-10.02
-9.28
-8.16
-6.78
-5.25
-3.69
-2.20
-0.89
0.17
0.94
1.43
1.71
1.88
1.98
2.04
2.04
1.98
1.88
1.81
1.86
2.09
2.54
3.15
3.78
4.27
4.49
4.38
3.93
3.23
2.38
1.50
0.71
0.09
-0.31
-0.51
-0.60
-0.74
-1.06
-1.65
-2.46
-3.34
-4.14
-4.73
-5.10
-5.37
-5.65
-6.00
-6.38
-6.66
-6.61
-6.08
-5.01
-3.50
-1.74
0.01
1.56
2.79
3.68
4.27
4.59
4.69
4.58
4.26
3.78
3.25
2.82
2.64
2.78
3.22
3.82
4.40
4.80
4.97
4.95
4.85
4.78
4.74
4.65
4.37
3.79
2.90
1.80
0.69
-0.26
-0.97
-1.51
-2.03
-2.69
-3.53
-4.49
-5.45
-6.32
-7.10
-7.86
-8.64
-9.45
-10.12
-10.48
-10.31
-9.53
-8.16
-6.35
-4.30
-2.23
-0.32
1.30
2.59
3.56
4.24
4.66
4.79
4.60
4.13
3.49
2.90
2.57
2.63
3.08
3.77
4.51
5.11
5.51
5.69
5.72
5.63
5.43
5.11
4.65
4.03
3.25
2.35
1.39
0.45
-0.38
-1.04
-1.54
-1.95
-2.39
-2.97
-3.74
-4.66
-5.68
-6.70
-7.70
-8.63
-9.45
-10.03
-10.22
-9.86
-8.86
-7.27
-5.26
-3.07
-0.95
0.94
2.50
3.69
4.48
4.89
4.92
4.61
4.07
3.46
2.94
2.67
2.69
2.96
3.39
3.89
4.39
4.84
5.24
5.54
5.73
5.78
5.66
5.36
4.88
4.19
3.31
2.30
1.26
0.29
-0.54
-1.22
-1.80
-2.36
-2.94
-3.56
-4.26
-5.09
-6.11
-7.33
-8.66
-9.88
-10.73
-11.00
-10.58
-9.59
-8.18
-6.50
-4.62
-2.54
-0.29
1.96
3.94
5.35
6.01
5.92
5.33
4.54
3.84
3.40
3.26
3.40
3.76
4.26
4.82
5.34
5.71
5.89
5.89
5.76
5.56
5.30
4.97
4.51
3.88
3.06
2.13
1.13
0.13
-0.82
-1.71
-2.51
-3.18
-3.74
-4.21
-4.71
-5.33
-6.14
-7.08
-7.99
-8.63
-8.76
-8.23
-7.01
-5.21
-3.06
-0.84
1.17
2.79
3.97
4.76
5.30
5.64
5.78
5.66
5.22
4.51
3.70
3.06
2.83
3.10
3.80
4.71
5.59
6.24
6.56
6.56
6.33
5.98
5.60
5.22
4.82
4.33
3.70
2.90
2.01
1.11
0.24
-0.60
-1.48
-2.50
-3.64
-4.80
-5.84
-6.65
-7.24
-7.71
-8.20
-8.80
-9.41
-9.85
-9.88
-9.37
-8.28
-6.72
-4.86
-2.89
-0.96
0.81
2.34
3.57
4.43
4.87
4.94
4.78
4.53
4.34
4.30
4.41
4.66
4.96
5.28
5.57
5.81
5.96
6.00
5.94
5.78
5.55
5.22
4.81
4.31
3.72
3.04
2.28
1.41
0.42
-0.67
-1.79
-2.82
-3.67
-4.28
-4.69
-5.04
-5.47
-6.14
-7.07
-8.18
-9.27
-10.05
-10.29
-9.83
-8.70
-7.02
-5.04
-2.99
-1.11
0.48
1.69
2.55
3.11
3.48
3.70
3.82
3.83
3.75
3.64
3.57
3.64
3.90
4.31
4.79
5.23
5.54
5.68
5.64
5.45
5.11
4.63
3.99
3.20
2.35
1.52
0.82
0.30
-0.06
-0.38
-0.82
-1.47
-2.36
-3.39
-4.45
-5.42
-6.26
-6.92
-7.38
-7.55
-7.36
-6.76
-5.81
-4.59
-3.26
-1.89
-0.52
0.82
2.11
3.26
4.19
4.80
5.08
5.08
4.89
4.59
4.24
3.86
3.48
3.13
2.89
2.84
3.02
3.43
3.98
4.52
4.90
4.96
4.59
3.82
2.78
1.67
0.69
-0.04
-0.54
-0.95
-1.42
-2.04
-2.78
-3.52
-4.16
-4.68
-5.17
-5.80
-6.66
-7.70
-8.76
-9.55
-9.86
-9.57
-8.70
-7.38
-5.76
-3.97
-2.13
-0.36
1.24
2.51
3.39
3.87
4.08
4.19
4.36
4.61
4.86
4.96
4.78
4.34
3.74
3.20
2.89
2.90
3.23
3.75
4.30
4.71
4.84
4.62
4.08
3.32
2.53
1.86
1.37
1.01
0.66
0.19
-0.44
-1.21
-2.05
-2.86
-3.61
-4.30
-4.97
-5.64
-6.33
-7.01
-7.69
-8.30
-8.80
-9.05
-8.95
-8.36
-7.26
-5.71
-3.91
-2.10
-0.47
0.87
1.94
2.79
3.46
3.89
4.02
3.81
3.32
2.73
2.24
2.02
2.13
2.49
2.98
3.46
3.86
4.14
4.31
4.36
4.26
3.94
3.36
2.52
1.51
0.47
-0.44
-1.08
-1.44
-1.57
-1.64
-1.80
-2.19
-2.84
-3.72
-4.75
-5.84
-6.91
-7.89
-8.71
-9.29
-9.57
-9.46
-8.98
-8.18
-7.14
-5.96
-4.70
-3.41
-2.16
-1.02
-0.08
0.55
0.82
0.73
0.35
-0.22
-0.87
-1.51
-2.09
-2.59
-3.06
-3.52
-4.03
-4.63
-5.28
-5.95
-6.59
-7.13
-7.62
-8.15
-8.84
-9.80
-11.02
-12.42
-13.83
-15.04
-15.91
-16.32
-16.15
-15.29
-13.62
-11.12
-7.93
-4.38
-0.90
2.10
4.36
5.86
6.77
7.40
8.03
8.86
9.97
11.32
12.75
14.09
15.15
15.81
16.01
15.80
15.27
14.57
13.81
13.07
12.38
11.72
11.07
10.41
9.75
9.10
8.51
8.00
7.59
7.27
7.04
6.84
6.65
6.44
6.18
5.84
5.38
4.79
4.04
3.14
2.14
1.10
0.08
-0.87
-1.73
-2.50
-3.18
-3.82
-4.47
-5.19
-6.06
-7.09
-8.21
-9.27
-10.06
-10.37
-10.08
-9.19
-7.84
-6.24
-4.62
-3.16
-1.93
-0.88
0.11
1.12
2.17
3.17
3.94
4.35
4.36
4.09
3.71
3.42
3.36
3.52
3.84
4.21
4.57
4.88
5.11
5.20
5.07
4.64
3.92
3.05
2.19
1.54
1.15
0.97
0.79
0.40
-0.33
-1.38
-2.59
-3.72
-4.56
-5.02
-5.20
-5.31
-5.63
-6.33
-7.45
-8.81
-10.16
-11.18
-11.68
-11.57
-10.87
-9.63
-7.95
-5.90
-3.61
-1.31
0.76
2.34
3.31
3.69
3.66
3.45
3.26
3.18
3.23
3.36
3.52
3.69
3.86
4.00
4.14
4.24
4.31
4.33
4.30
4.19
3.97
3.66
3.28
2.88
2.48
2.02
1.44
0.66
-0.28
-1.29
-2.22
-3.00
-3.63
-4.24
-4.93
-5.77
-6.74
-7.71
-8.50
-8.91
-8.81
-8.14
-6.91
-5.24
-3.30
-1.31
0.57
2.20
3.54
4.56
5.27
5.66
5.77
5.64
5.38
5.08
4.84
4.67
4.58
4.52
4.46
4.43
4.43
4.48
4.58
4.65
4.64
4.51
4.25
3.90
3.48
2.96
2.29
1.40
0.29
-0.96
-2.22
-3.34
-4.24
-4.94
-5.56
-6.20
-6.97
-7.90
-8.95
-10.07
-11.13
-11.96
-12.33
-12.03
-10.97
-9.24
-7.07
-4.74
-2.47
-0.36
1.57
3.30
4.75
5.81
6.41
6.58
6.48
6.30
6.16
6.12
6.13
6.16
6.17
6.18
6.20
6.25
6.33
6.43
6.51
6.54
6.46
6.24
5.86
5.36
4.75
4.04
3.18
2.15
0.96
-0.27
-1.37
-2.20
-2.71
-3.03
-3.36
-3.91
-4.76
-5.88
-7.14
-8.41
-9.58
-10.55
-11.20
-11.38
-10.92
-9.71
-7.84
-5.51
-3.04
-0.74
1.24
2.83
4.06
4.96
5.51
5.65
5.41
4.87
4.24
3.72
3.48
3.59
4.00
4.60
5.26
5.90
6.45
6.87
7.12
7.15
6.94
6.45
5.69
4.70
3.57
2.40
1.31
0.36
-0.42
-1.05
-1.55
-2.00
-2.49
-3.15
-4.06
-5.22
-6.54
-7.79
-8.75
-9.23
-9.18
-8.66
-7.74
-6.50
-4.99
-3.24
-1.33
0.65
2.53
4.20
5.57
6.59
7.22
7.44
7.26
6.77
6.13
5.52
5.12
5.04
5.25
5.63
6.02
6.32
6.46
6.43
6.28
6.02
5.68
5.21
4.58
3.75
2.73
1.57
0.39
-0.69
-1.59
-2.28
-2.82
-3.32
-3.90
-4.63
-5.53
-6.58
-7.68
-8.72
-9.58
-10.10
-10.16
-9.65
-8.52
-6.84
-4.74
-2.41
-0.10
2.00
3.70
4.93
5.67
5.99
6.01
5.82
5.50
5.11
4.73
4.43
4.31
4.39
4.66
5.02
5.38
5.69
5.91
6.06
6.12
6.08
5.91
5.57
5.08
4.48
3.78
2.95
1.97
0.83
-0.40
-1.61
-2.73
-3.71
-4.60
-5.49
-6.47
-7.57
-8.76
-9.95
-10.97
-11.69
-11.95
-11.62
-10.67
-9.12
-7.12
-4.84
-2.53
-0.39
1.43
2.86
3.90
4.60
5.02
5.18
5.15
4.94
4.65
4.33
4.11
4.03
4.08
4.20
4.30
4.33
4.29
4.24
4.22
4.23
4.22
4.10
3.85
3.40
2.81
2.09
1.29
0.44
-0.42
-1.27
-2.10
-2.93
-3.78
-4.68
-5.61
-6.50
-7.29
-7.86
-8.14
-8.08
-7.66
-6.85
-5.66
-4.13
-2.35
-0.47
1.36
2.94
4.17
4.99
5.42
5.51
5.33
4.91
4.26
3.46
2.65
2.07
1.93
2.28
3.05
3.95
4.68
5.00
4.86
4.35
3.66
2.96
2.32
1.77
1.25
0.68
0.00
-0.84
-1.84
-2.98
-4.22
-5.55
-6.95
-8.44
-10.00
-11.56
-13.02
-14.29
-15.36
-16.26
-17.06
-17.74
-18.19
-18.26
-17.80
-16.79
-15.36
-13.80
-12.39
-11.38
-10.91
-10.94
-11.32
-11.77
-12.04
-11.89
-11.13
-9.64
-7.32
-4.12
-0.07
4.63
9.58
14.20
17.92
20.36
21.45
21.47
20.90
20.20
19.64
19.25
18.89
18.37
17.59
16.55
15.30
13.90
12.34
10.61
8.71
6.70
4.71
2.83
1.14
-0.40
-1.81
-3.12
-4.24
-5.02
-5.29
-4.92
-3.92
-2.41
-0.59
1.26
2.85
3.98
4.55
4.57
4.16
3.49
2.68
1.82
0.96
0.18
-0.37
-0.50
-0.09
0.84
2.09
3.32
4.19
4.52
4.29
3.67
2.81
1.85
0.83
-0.28
-1.49
-2.68
-3.64
-4.14
-4.02
-3.30
-2.28
-1.39
-1.13
-1.79
-3.37
-5.54
-7.80
-9.65
-10.78
-11.05
-10.55
-9.37
-7.62
-5.36
-2.72
0.06
2.63
4.61
5.74
5.96
5.47
4.64
3.81
3.23
2.92
2.73
2.56
2.36
2.28
2.53
3.27
4.43
5.75
6.87
7.45
7.36
6.64
5.50
4.17
2.82
1.58
0.50
-0.39
-1.10
-1.67
-2.12
-2.47
-2.74
-2.99
-3.33
-3.96
-5.00
-6.44
-8.04
-9.31
-9.77
-9.12
-7.41
-5.04
-2.57
-0.47
1.04
2.00
2.61
3.06
3.40
3.55
3.44
3.03
2.45
1.93
1.66
1.77
2.19
2.77
3.30
3.65
3.74
3.62
3.38
3.12
2.92
2.80
2.71
2.58
2.31
1.82
1.09
0.16
-0.89
-1.97
-3.02
-3.98
-4.89
-5.71
-6.46
-7.12
-7.70
-8.21
-8.61
-8.81
-8.69
-8.13
-7.10
-5.65
-3.93
-2.14
-0.46
1.00
2.20
3.10
3.69
3.96
3.92
3.60
3.11
2.59
2.19
2.04
2.18
2.55
3.02
3.43
3.68
3.76
3.71
3.57
3.35
3.03
2.62
2.15
1.67
1.23
0.77
0.17
-0.68
-1.85
-3.24
-4.65
-5.88
-6.79
-7.37
-7.70
-7.90
-8.03
-8.05
-7.87
-7.36
-6.46
-5.19
-3.61
-1.88
-0.18
1.32
2.47
3.20
3.48
3.35
2.93
2.36
1.80
1.39
1.21
1.26
1.48
1.74
1.94
2.03
2.05
2.08
2.19
2.38
2.55
2.56
2.28
1.68
0.81
-0.19
-1.20
-2.14
-3.02
-3.84
-4.63
-5.38
-6.08
-6.69
-7.15
-7.37
-7.21
-6.56
-5.40
-3.81
-1.98
-0.14
1.49
2.80
3.73
4.31
4.57
4.56
4.31
3.92
3.49
3.13
2.88
2.73
2.63
2.55
2.49
2.49
2.63
2.87
3.15
3.36
3.39
3.21
2.80
2.22
1.51
0.71
-0.19
-1.14
-2.11
-3.07
-4.00
-4.93
-5.90
-6.95
-8.06
-9.16
-10.08
-10.60
-10.55
-9.77
-8.27
-6.20
-3.86
-1.63
0.18
1.41
2.10
2.43
2.62
2.79
2.95
3.02
2.93
2.73
2.54
2.49
2.64
2.98
3.38
3.74
4.01
4.18
4.25
4.25
4.18
4.03
3.82
3.57
3.31
3.04
2.73
2.31
1.74
1.00
0.13
-0.82
-1.74
-2.56
-3.19
-3.66
-4.06
-4.53
-5.23
-6.25
-7.51
-8.86
-9.99
-10.65
-10.60
-9.77
-8.23
-6.14
-3.74
-1.24
1.16
3.28
4.98
6.14
6.70
6.70
6.27
5.62
5.00
4.59
4.48
4.70
5.14
5.72
6.32
6.84
7.18
7.32
7.22
6.93
6.56
6.21
5.98
5.86
5.74
5.46
4.87
3.93
2.72
1.43
0.25
-0.71
-1.46
-2.11
-2.79
-3.55
-4.40
-5.28
-6.09
-6.73
-7.13
-7.22
-6.97
-6.38
-5.44
-4.19
-2.67
-0.94
0.90
2.69
4.26
5.45
6.20
6.52
6.52
6.32
6.01
5.59
5.08
4.52
4.01
3.68
3.62
3.85
4.25
4.64
4.87
4.84
4.61
4.28
4.00
3.80
3.63
3.32
2.71
1.76
0.56
-0.68
-1.76
-2.58
-3.19
-3.72
-4.30
-4.99
-5.75
-6.49
-7.20
-7.88
-8.56
-9.18
-9.57
-9.53
-8.87
-7.59
-5.82
-3.82
-1.87
-0.15
1.28
2.43
3.33
3.96
4.26
4.19
3.76
3.13
2.53
2.17
2.14
2.36
2.66
2.87
2.93
2.90
2.91
3.06
3.31
3.53
3.57
3.32
2.81
2.14
1.42
0.72
0.05
-0.63
-1.36
-2.13
-2.95
-3.79
-4.66
-5.60
-6.60
-7.59
-8.36
-8.68
-8.33
-7.27
-5.65
-3.75
-1.88
-0.25
1.11
2.22
3.15
3.88
4.32
4.40
4.10
3.56
2.99
2.59
2.46
2.56
2.75
2.89
2.95
2.94
2.97
3.09
3.26
3.36
3.26
2.86
2.18
1.31
0.38
-0.54
-1.44
-2.38
-3.39
-4.50
-5.64
-6.70
-7.61
-8.33
-8.88
-9.28
-9.50
-9.45
-9.02
-8.12
-6.75
-4.98
-2.99
-0.91
1.11
2.94
4.47
5.50
5.93
5.70
4.94
3.94
3.01
2.41
2.25
2.45
2.87
3.33
3.69
3.89
3.90
3.73
3.41
2.98
2.53
2.13
1.79
1.46
1.04
0.40
-0.46
-1.48
-2.47
-3.27
-3.84
-4.30
-4.85
-5.68
-6.81
-8.05
-9.04
-9.44
-9.02
-7.80
-5.97
-3.82
-1.65
0.34
2.02
3.35
4.27
4.79
4.96
4.89
4.75
4.68
4.75
4.88
4.98
4.87
4.50
3.93
3.32
2.89
2.78
3.05
3.62
4.33
4.93
5.19
4.90
3.96
2.46
0.63
-1.17
-2.57
-3.36
-3.56
-3.40
-3.24
-3.40
-4.08
-5.25
-6.72
-8.19
-9.33
-9.92
-9.83
-9.05
-7.67
-5.84
-3.74
-1.58
0.43
2.11
3.29
3.91
3.99
3.65
3.08
2.50
2.06
1.82
1.76
1.81
1.90
2.00
2.15
2.38
2.71
3.11
3.50
3.77
3.83
3.65
3.25
2.69
2.01
1.25
0.43
-0.43
-1.32
-2.17
-2.95
-3.65
-4.35
-5.11
-5.98
-6.91
-7.74
-8.24
-8.20
-7.50
-6.23
-4.60
-2.89
-1.35
-0.09
0.88
1.57
1.95
1.96
1.54
0.70
-0.44
-1.68
-2.79
-3.64
-4.24
-4.67
-5.02
-5.36
-5.69
-6.01
-6.38
-6.88
-7.61
-8.61
-9.82
-11.14
-12.44
-13.65
-14.73
-15.65
-16.31
-16.56
-16.23
-15.22
-13.56
-11.46
-9.16
-6.87
-4.66
-2.44
-0.04
2.67
5.66
8.76
11.70
14.29
16.39
18.01
19.16
19.87
20.05
19.63
18.60
17.08
15.29
13.55
12.10
11.09
10.53
10.34
10.36
10.42
10.43
10.30
10.04
9.69
9.30
8.86
8.34
7.69
6.87
5.90
4.81
3.67
2.50
1.34
0.24
-0.77
-1.64
-2.38
-3.06
-3.74
-4.50
-5.34
-6.22
-7.00
-7.58
-7.83
-7.67
-7.03
-5.91
-4.36
-2.54
-0.63
1.17
2.70
3.86
4.59
4.90
4.80
4.39
3.83
3.32
3.01
2.97
3.14
3.42
3.70
3.93
4.12
4.29
4.40
4.39
4.16
3.71
3.07
2.33
1.57
0.84
0.14
-0.55
-1.20
-1.78
-2.28
-2.75
-3.25
-3.88
-4.65
-5.53
-6.42
-7.19
-7.74
-8.01
-7.95
-7.55
-6.77
-5.67
-4.30
-2.78
-1.22
0.24
1.51
2.51
3.20
3.56
3.62
3.46
3.20
2.98
2.92
3.07
3.40
3.84
4.27
4.59
4.76
4.80
4.75
4.65
4.49
4.23
3.82
3.21
2.41
1.52
0.62
-0.18
-0.84
-1.36
-1.79
-2.21
-2.70
-3.33
-4.13
-5.05
-6.01
-6.86
-7.49
-7.76
-7.59
-6.95
-5.90
-4.54
-3.05
-1.60
-0.29
0.81
1.72
2.46
3.01
3.36
3.44
3.30
3.00
2.68
2.44
2.35
2.43
2.64
2.94
3.26
3.57
3.84
4.04
4.16
4.21
4.17
4.04
3.77
3.28
2.52
1.52
0.37
-0.80
-1.81
-2.57
-3.06
-3.32
-3.46
-3.64
-3.98
-4.57
-5.40
-6.41
-7.41
-8.21
-8.64
-8.60
-8.08
-7.15
-5.89
-4.40
-2.80
-1.17
0.39
1.76
2.82
3.49
3.72
3.57
3.16
2.71
2.43
2.46
2.82
3.36
3.91
4.31
4.50
4.54
4.49
4.39
4.24
4.03
3.75
3.44
3.18
2.99
2.87
2.73
2.50
2.08
1.40
0.45
-0.71
-1.93
-3.07
-3.96
-4.57
-4.96
-5.28
-5.72
-6.37
-7.23
-8.14
-8.91
-9.34
-9.30
-8.75
-7.76
-6.44
-4.89
-3.24
-1.57
-0.00
1.38
2.47
3.18
3.50
3.49
3.28
3.01
2.79
2.65
2.57
2.50
2.41
2.35
2.33
2.44
2.66
2.98
3.29
3.51
3.56
3.41
3.07
2.58
2.01
1.40
0.78
0.16
-0.44
-1.03
-1.59
-2.13
-2.62
-3.08
-3.52
-3.97
-4.50
-5.15
-5.91
-6.70
-7.38
-7.77
-7.73
-7.18
-6.13
-4.70
-3.00
-1.21
0.52
2.03
3.18
3.88
4.08
3.87
3.41
2.93
2.60
2.53
2.69
2.96
3.24
3.43
3.53
3.58
3.67
3.80
3.98
4.14
4.26
4.30
4.25
4.10
3.79
3.29
2.56
1.60
0.49
-0.66
-1.75
-2.71
-3.51
-4.19
-4.80
-5.43
-6.13
-6.91
-7.78
-8.65
-9.45
-10.04
-10.28
-10.06
-9.29
-8.00
-6.27
-4.31
-2.39
-0.74
0.53
1.46
2.19
2.91
3.66
4.37
4.86
4.99
4.74
4.26
3.79
3.54
3.60
3.90
4.31
4.73
5.13
5.53
5.93
6.29
6.51
6.47
6.12
5.50
4.70
3.83
2.97
2.15
1.39
0.66
-0.03
-0.73
-1.47
-2.27
-3.09
-3.85
-4.48
-4.98
-5.41
-5.88
-6.52
-7.34
-8.28
-9.21
-9.96
-10.40
-10.40
-9.91
-8.90
-7.42
-5.59
-3.60
-1.64
0.15
1.70
3.01
4.08
4.91
5.47
5.72
5.66
5.33
4.83
4.30
3.91
3.80
4.04
4.63
5.46
6.35
7.09
7.49
7.41
6.84
5.88
4.71
3.57
2.66
2.10
1.89
1.86
1.79
1.43
0.63
-0.60
-2.10
-3.54
-4.61
-5.12
-5.12
-4.88
-4.78
-5.12
-6.01
-7.27
-8.56
-9.49
-9.82
-9.50
-8.64
-7.40
-5.93
-4.30
-2.57
-0.81
0.88
2.35
3.44
4.05
4.15
3.88
3.45
3.11
3.02
3.20
3.53
3.80
3.89
3.80
3.65
3.57
3.68
3.95
4.24
4.41
4.34
4.02
3.49
2.85
2.19
1.57
0.97
0.37
-0.26
-0.96
-1.69
-2.39
-3.01
-3.53
-4.03
-4.59
-5.30
-6.08
-6.77
-7.11
-6.88
-5.99
-4.48
-2.53
-0.41
1.64
3.43
4.84
5.81
6.31
6.36
6.00
5.34
4.52
3.70
2.99
2.44
2.05
1.81
1.72
1.83
2.15
2.65
3.23
3.76
4.10
4.21
4.12
3.88
3.50
2.94
2.14
1.08
-0.15
-1.41
-2.52
-3.40
-4.08
-4.67
-5.30
-6.06
-6.91
-7.77
-8.57
-9.27
-9.87
-10.36
-10.65
-10.62
-10.14
-9.15
-7.70
-5.94
-4.05
-2.18
-0.40
1.24
2.72
3.97
4.93
5.52
5.77
5.75
5.64
5.62
5.79
6.21
6.78
7.39
7.87
8.10
8.00
7.60
7.04
6.51
6.25
6.38
6.88
7.50
7.89
7.67
6.61
4.74
2.33
-0.21
-2.51
-4.24
-5.25
-5.50
-5.10
-4.25
-3.26
-2.47
-2.14
-2.38
-3.05
-3.80
-4.23
-4.01
-3.03
-1.41
0.51
2.37
3.85
4.74
5.03
4.78
4.17
3.39
2.56
1.77
1.10
0.58
0.25
0.14
0.24
0.55
1.07
1.80
2.73
3.76
4.68
5.23
5.15
4.29
2.66
0.45
-2.04
-4.46
-6.48
-7.84
-8.37
-8.09
-7.18
-6.09
-5.28
-5.16
-5.88
-7.26
-8.87
-10.16
-10.69
-10.28
-8.99
-7.06
-4.86
-2.70
-0.80
0.72
1.88
2.71
3.27
3.60
3.75
3.75
3.66
3.56
3.49
3.50
3.57
3.65
3.69
3.67
3.60
3.49
3.41
3.38
3.40
3.45
3.48
3.41
3.17
2.69
1.96
1.06
0.10
-0.77
-1.48
-2.07
-2.66
-3.41
-4.40
-5.61
-6.88
-8.02
-8.80
-9.13
-8.94
-8.28
-7.24
-5.94
-4.50
-3.01
-1.55
-0.17
1.10
2.23
3.21
3.96
4.43
4.54
4.33
3.85
3.27
2.74
2.37
2.21
2.26
2.50
2.90
3.44
4.00
4.46
4.64
4.39
3.67
2.58
1.26
-0.07
-1.24
-2.11
-2.59
-2.65
-2.34
-1.80
-1.26
-0.99
-1.26
-2.17
-3.68
-5.60
-7.63
-9.49
-10.91
-11.66
-11.58
-10.60
-8.79
-6.39
-3.77
-1.37
0.50
1.70
2.32
2.57
2.67
2.76
2.88
3.03
3.19
3.41
3.75
4.21
4.72
5.14
5.37
5.37
5.23
5.11
5.17
5.46
5.93
6.46
6.86
7.04
6.94
6.60
6.11
5.56
5.01
4.47
3.88
3.14
2.18
0.99
-0.33
-1.63
-2.82
-3.86
-4.81
-5.72
-6.60
-7.32
-7.69
-7.53
-6.75
-5.45
-3.87
-2.26
-0.84
0.34
1.30
2.11
2.78
3.27
3.48
3.39
3.07
2.69
2.49
2.63
3.16
3.97
4.87
5.63
6.08
6.19
5.98
5.57
5.07
4.59
4.17
3.80
3.44
3.00
2.44
1.73
0.91
0.07
-0.69
-1.34
-1.91
-2.49
-3.17
-3.94
-4.73
-5.46
-6.08
-6.58
-6.98
-7.26
-7.31
-6.99
-6.17
-4.86
-3.15
-1.29
0.49
2.01
3.16
3.95
4.44
4.69
4.76
4.68
4.45
4.10
3.69
3.33
3.14
3.15
3.33
3.53
3.64
3.58
3.40
3.17
2.98
2.79
2.53
2.12
1.54
0.86
0.20
-0.33
-0.68
-0.93
-1.21
-1.68
-2.44
-3.54
-4.83
-6.11
-7.14
-7.70
-7.72
-7.18
-6.21
-4.93
-3.44
-1.80
-0.09
1.58
3.09
4.31
5.18
5.71
5.94
5.88
5.52
4.86
3.95
2.92
1.95
1.20
0.73
0.56
0.65
0.96
1.48
2.16
2.91
3.53
3.80
3.55
2.74
1.48
-0.02
-1.52
-2.83
-3.87
-4.62
-5.17
-5.63
-6.11
-6.65
-7.25
-7.85
-8.38
-8.77
-8.94
-8.82
-8.36
-7.56
-6.44
-5.08
-3.57
-2.05
-0.67
0.44
1.12
1.29
0.95
0.21
-0.74
-1.67
-2.42
-2.89
-3.11
-3.20
-3.29
-3.52
-3.91
-4.45
-5.04
-5.62
-6.24
-6.98
-8.01
-9.40
-11.09
-12.90
-14.56
-15.82
-16.52
-16.60
-16.06
-14.98
-13.40
-11.44
-9.20
-6.80
-4.27
-1.61
1.24
4.30
7.48
10.59
13.39
15.68
17.41
18.65
19.50
20.04
20.24
20.01
19.28
18.08
16.60
15.09
13.77
12.76
12.02
11.43
10.89
10.40
10.01
9.75
9.61
9.45
9.11
8.48
7.56
6.47
5.38
4.39
3.53
2.78
2.04
1.28
0.45
-0.47
-1.48
-2.59
-3.76
-4.94
-6.07
-7.08
-7.92
-8.53
-8.83
-8.73
-8.21
-7.28
-6.05
-4.65
-3.18
-1.69
-0.19
1.28
2.61
3.62
4.14
4.08
3.51
2.69
1.92
1.47
1.50
2.05
3.00
4.19
5.40
6.36
6.80
6.52
5.45
3.70
1.57
-0.56
-2.36
-3.57
-4.09
-3.88
-3.00
-1.57
0.19
1.94
3.30
3.91
3.64
2.52
0.82
-1.16
-3.13
-4.93
-6.52
-7.91
-9.04
-9.78
-9.96
-9.41
-8.13
-6.31
-4.29
-2.41
-0.87
0.29
1.17
1.88
2.44
2.80
2.90
2.74
2.39
1.99
1.64
1.36
1.13
0.92
0.75
0.68
0.75
0.92
1.11
1.20
1.15
1.01
0.83
0.65
0.43
0.09
-0.42
-1.09
-1.82
-2.53
-3.14
-3.68
-4.21
-4.83
-5.53
-6.26
-6.92
-7.40
-7.63
-7.59
-7.23
-6.54
-5.49
-4.09
-2.40
-0.55
1.28
2.89
4.09
4.76
4.87
4.53
3.98
3.45
3.14
3.11
3.26
3.42
3.44
3.29
3.04
2.86
2.85
3.03
3.25
3.35
3.20
2.82
2.31
1.84
1.49
1.23
0.91
0.36
-0.53
-1.69
-2.96
-4.09
-4.92
-5.43
-5.78
-6.16
-6.70
-7.36
-7.92
-8.09
-7.66
-6.55
-4.91
-2.99
-1.10
0.54
1.83
2.72
3.25
3.48
3.50
3.38
3.19
2.97
2.74
2.51
2.33
2.26
2.36
2.66
3.08
3.53
3.85
3.95
3.79
3.42
2.90
2.31
1.71
1.12
0.57
0.07
-0.38
-0.78
-1.17
-1.62
-2.21
-2.98
-3.93
-4.99
-6.07
-7.04
-7.74
-8.08
-7.99
-7.46
-6.52
-5.27
-3.81
-2.30
-0.87
0.37
1.40
2.23
2.89
3.42
3.78
3.92
3.78
3.40
2.86
2.31
1.89
1.65
1.59
1.62
1.67
1.69
1.72
1.79
1.90
2.06
2.19
2.22
2.09
1.75
1.21
0.50
-0.31
-1.15
-2.00
-2.83
-3.68
-4.56
-5.47
-6.35
-7.07
-7.49
-7.50
-7.06
-6.22
-5.05
-3.66
-2.15
-0.61
0.88
2.29
3.57
4.65
5.45
5.87
5.83
5.34
4.54
3.69
3.05
2.78
2.86
3.08
3.18
3.02
2.64
2.25
2.07
2.19
2.49
2.73
2.65
2.12
1.21
0.14
-0.89
-1.75
-2.43
-3.02
-3.64
-4.31
-5.04
-5.77
-6.48
-7.14
-7.73
-8.15
-8.28
-7.97
-7.13
-5.79
-4.08
-2.21
-0.36
1.31
2.73
3.83
4.55
4.89
4.91
4.71
4.41
4.11
3.87
3.69
3.58
3.57
3.73
4.04
4.47
4.86
5.07
4.98
4.59
4.02
3.41
2.88
2.48
2.18
1.84
1.34
0.60
-0.39
-1.49
-2.53
-3.38
-4.03
-4.58
-5.19
-6.02
-7.06
-8.16
-9.05
-9.48
-9.28
-8.45
-7.14
-5.54
-3.83
-2.13
-0.53
0.94
2.21
3.25
4.03
4.55
4.84
4.95
4.91
4.74
4.54
4.37
4.35
4.53
4.85
5.20
5.47
5.62
5.66
5.69
5.75
5.80
5.76
5.52
5.04
4.36
3.58
2.79
2.04
1.29
0.48
-0.44
-1.48
-2.59
-3.67
-4.58
-5.20
-5.49
-5.57
-5.66
-6.02
-6.78
-7.85
-8.98
-9.80
-10.02
-9.53
-8.40
-6.78
-4.88
-2.84
-0.82
1.03
2.55
3.60
4.14
4.24
4.08
3.90
3.88
4.10
4.53
5.01
5.34
5.35
4.96
4.22
3.32
2.51
2.08
2.18
2.82
3.79
4.77
5.42
5.46
4.80
3.56
2.00
0.41
-0.93
-1.93
-2.62
-3.09
-3.47
-3.83
-4.24
-4.75
-5.42
-6.27
-7.24
-8.18
-8.81
-8.88
-8.20
-6.77
-4.72
-2.35
0.04
2.16
3.84
5.03
5.75
6.09
6.11
5.87
5.43
4.87
4.31
3.88
3.69
3.82
4.25
4.90
5.61
6.23
6.58
6.58
6.19
5.47
4.57
3.62
2.71
1.87
1.06
0.23
-0.62
-1.44
-2.17
-2.79
-3.33
-3.89
-4.53
-5.27
-6.07
-6.84
-7.52
-8.10
-8.63
-9.10
-9.50
-9.66
-9.37
-8.45
-6.85
-4.71
-2.32
-0.03
1.91
3.37
4.38
5.00
5.32
5.42
5.38
5.27
5.17
5.12
5.11
5.12
5.12
5.13
5.22
5.40
5.67
5.95
6.15
6.18
6.02
5.67
5.19
4.59
3.89
3.10
2.24
1.35
0.47
-0.39
-1.25
-2.07
-2.86
-3.56
-4.16
-4.65
-5.09
-5.55
-6.09
-6.76
-7.57
-8.47
-9.36
-10.06
-10.37
-10.10
-9.16
-7.59
-5.62
-3.52
-1.57
0.05
1.33
2.33
3.12
3.72
4.11
4.23
4.10
3.81
3.52
3.39
3.52
3.90
4.46
5.04
5.51
5.77
5.80
5.63
5.31
4.91
4.46
3.96
3.41
2.83
2.22
1.60
0.97
0.32
-0.38
-1.17
-2.03
-2.92
-3.73
-4.41
-4.91
-5.31
-5.69
-6.17
-6.78
-7.46
-8.06
-8.40
-8.33
-7.78
-6.79
-5.45
-3.86
-2.11
-0.29
1.52
3.20
4.58
5.54
5.96
5.83
5.28
4.48
3.70
3.13
2.92
3.08
3.53
4.14
4.77
5.32
5.70
5.88
5.82
5.51
5.00
4.37
3.73
3.16
2.70
2.28
1.85
1.33
0.69
-0.04
-0.82
-1.60
-2.31
-2.95
-3.55
-4.16
-4.86
-5.71
-6.72
-7.88
-9.14
-10.43
-11.66
-12.71
-13.43
-13.63
-13.16
-11.91
-9.95
-7.45
-4.74
-2.17
-0.06
1.38
2.05
1.93
1.12
-0.21
-1.81
-3.39
-4.69
-5.57
-6.05
-6.26
-6.41
-6.70
-7.19
-7.80
-8.45
-9.06
-9.62
-10.19
-10.82
-11.52
-12.21
-12.74
-12.97
-12.77
-12.07
-10.86
-9.20
-7.19
-4.93
-2.51
-0.03
2.41
4.69
6.69
8.26
9.32
9.82
9.77
9.28
8.51
7.66
6.98
6.66
6.82
7.43
8.31
9.26
10.11
10.82
11.45
12.13
12.88
13.59
14.06
14.05
13.45
12.35
11.01
9.78
8.93
8.55
8.58
8.85
9.20
9.47
9.59
9.52
9.26
8.81
8.20
7.50
6.78
6.14
5.59
5.13
4.63
3.96
3.00
1.74
0.24
-1.31
-2.68
-3.74
-4.45
-4.92
-5.35
-5.93
-6.75
-7.79
-8.85
-9.68
-10.02
-9.70
-8.68
-7.05
-5.01
-2.83
-0.74
1.09
2.52
3.52
4.10
4.33
4.32
4.17
3.98
3.80
3.64
3.51
3.37
3.29
3.30
3.42
3.63
3.86
4.01
4.05
4.00
3.92
3.83
3.67
3.34
2.74
1.88
0.87
-0.14
-0.99
-1.66
-2.25
-2.96
-3.90
-5.06
-6.35
-7.57
-8.62
-9.47
-10.16
-10.74
-11.22
-11.45
-11.23
-10.37
-8.75
-6.43
-3.64
-0.70
2.05
4.32
5.95
6.93
7.35
7.33
7.04
6.66
6.35
6.22
6.34
6.69
7.14
7.57
7.85
7.94
7.87
7.71
7.57
7.52
7.60
7.81
8.05
8.18
8.01
7.41
6.40
5.15
3.88
2.81
1.98
1.28
0.52
-0.44
-1.60
-2.82
-3.92
-4.76
-5.37
-5.90
-6.55
-7.49
-8.78
-10.35
-11.97
-13.35
-14.16
-14.15
-13.26
-11.61
-9.44
-7.06
-4.71
-2.49
-0.45
1.38
2.92
4.04
4.64
4.72
4.39
3.83
3.26
2.86
2.74
2.92
3.35
3.95
4.60
5.20
5.66
5.93
5.99
5.85
5.52
5.03
4.42
3.76
3.12
2.57
2.10
1.66
1.13
0.42
-0.49
-1.58
-2.75
-3.88
-4.89
-5.73
-6.41
-6.97
-7.47
-7.98
-8.53
-9.15
-9.82
-10.50
-11.12
-11.52
-11.54
-10.98
-9.76
-7.87
-5.55
-3.07
-0.78
1.12
2.56
3.63
4.41
4.95
5.24
5.25
5.01
4.63
4.26
3.98
3.79
3.65
3.53
3.47
3.54
3.82
4.26
4.73
5.05
5.09
4.85
4.42
3.92
3.42
2.87
2.20
1.32
0.24
-0.95
-2.09
-3.06
-3.83
-4.47
-5.09
-5.79
-6.62
-7.51
-8.36
-9.08
-9.61
-9.90
-9.86
-9.41
-8.46
-6.97
-5.01
-2.77
-0.46
1.69
3.49
4.87
5.79
6.27
6.34
6.09
5.64
5.10
4.63
4.33
4.25
4.40
4.71
5.05
5.31
5.42
5.38
5.26
5.13
5.01
4.83
4.49
3.93
3.15
2.26
1.35
0.49
-0.39
-1.35
-2.42
-3.53
-4.53
-5.27
-5.77
-6.18
-6.76
-7.72
-9.11
-10.75
-12.30
-13.42
-13.80
-13.30
-11.91
-9.81
-7.27
-4.60
-2.09
0.06
1.78
3.14
4.27
5.23
6.05
6.64
6.92
6.87
6.55
6.11
5.69
5.39
5.23
5.16
5.15
5.22
5.40
5.76
6.26
6.83
7.28
7.43
7.18
6.50
5.49
4.30
3.09
1.98
0.99
0.08
-0.80
-1.69
-2.59
-3.49
-4.37
-5.25
-6.15
-7.08
-8.04
-9.01
-9.93
-10.76
-11.41
-11.81
-11.85
-11.44
-10.52
-9.09
-7.22
-5.04
-2.73
-0.51
1.44
2.97
4.04
4.74
5.17
5.50
5.78
5.97
6.00
5.81
5.46
5.07
4.79
4.68
4.72
4.83
4.93
4.99
5.05
5.11
5.13
5.02
4.72
4.20
3.56
2.89
2.24
1.55
0.70
-0.38
-1.65
-2.90
-3.92
-4.57
-4.90
-5.12
-5.48
-6.11
-6.99
-7.98
-8.90
-9.61
-10.04
-10.15
-9.87
-9.12
-7.83
-6.04
-3.86
-1.49
0.86
3.04
4.95
6.55
7.81
8.68
9.13
9.13
8.75
8.08
7.28
6.50
5.87
5.47
5.32
5.41
5.67
6.01
6.32
6.47
6.40
6.10
5.61
5.05
4.45
3.82
3.11
2.28
1.28
0.15
-1.07
-2.31
-3.48
-4.52
-5.38
-6.08
-6.65
-7.17
-7.69
-8.26
-8.88
-9.54
-10.24
-10.92
-11.51
-11.82
-11.61
-10.64
-8.82
-6.26
-3.29
-0.36
2.12
3.91
5.02
5.62
5.93
6.14
6.27
6.25
6.03
5.63
5.21
4.98
5.08
5.52
6.14
6.75
7.19
7.47
7.67
7.87
8.11
8.26
8.16
7.64
6.70
5.44
4.10
2.87
1.86
1.05
0.32
-0.41
-1.23
-2.10
-3.00
-3.87
-4.68
-5.44
-6.16
-6.88
-7.64
-8.48
-9.38
-10.26
-10.97
-11.32
-11.09
-10.16
-8.52
-6.29
-3.70
-1.00
1.59
3.85
5.64
6.82
7.29
7.03
6.14
4.84
3.43
2.20
1.34
0.90
0.82
1.00
1.34
1.79
2.30
2.83
3.32
3.71
3.97
4.10
4.12
4.04
3.88
3.59
3.12
2.44
1.52
0.45
-0.68
-1.75
-2.68
-3.45
-4.10
-4.71
-5.34
-6.04
-6.86
-7.79
-8.85
-9.94
-10.90
-11.48
-11.44
-10.64
-9.11
-7.07
-4.79
-2.51
-0.37
1.61
3.49
5.24
6.75
7.82
8.30
8.14
7.46
6.54
5.68
5.08
4.81
4.79
4.89
5.01
5.10
5.17
5.24
5.29
5.30
5.25
5.15
5.03
4.91
4.74
4.40
3.77
2.76
1.42
-0.10
-1.61
-2.97
-4.10
-5.06
-5.91
-6.69
-7.42
-8.09
-8.73
-9.41
-10.20
-11.10
-11.94
-12.46
-12.35
-11.44
-9.75
-7.45
-4.84
-2.20
0.27
2.45
4.28
5.70
6.67
7.18
7.26
6.97
6.44
5.80
5.19
4.68
4.34
4.17
4.12
4.15
4.25
4.42
4.63
4.85
4.97
4.91
4.57
3.97
3.19
2.35
1.56
0.82
0.07
-0.78
-1.81
-2.99
-4.23
-5.43
-6.50
-7.41
-8.20
-8.93
-9.67
-10.46
-11.31
-12.19
-12.99
-13.55
-13.65
-13.08
-11.74
-9.69
-7.15
-4.41
-1.75
0.70
2.91
4.89
6.59
7.90
8.68
8.86
8.49
7.80
7.05
6.45
6.13
6.05
6.15
6.31
6.45
6.58
6.72
6.90
7.12
7.34
7.43
7.27
6.77
5.91
4.77
3.45
2.10
0.80
-0.38
-1.46
-2.46
-3.40
-4.33
-5.27
-6.26
-7.30
-8.41
-9.55
-10.64
-11.56
-12.09
-12.03
-11.23
-9.72
-7.68
-5.41
-3.19
-1.16
0.66
2.35
3.95
5.37
6.42
6.89
6.69
5.95
4.95
4.01
3.38
3.16
3.32
3.74
4.30
4.89
5.42
5.81
5.98
5.90
5.56
5.01
4.31
3.49
2.54
1.48
0.32
-0.84
-1.91
-2.85
-3.74
-4.70
-5.86
-7.24
-8.72
-10.08
-11.10
-11.63
-11.62
-11.06
-9.97
-8.37
-6.29
-3.83
-1.22
1.29
3.45
5.10
6.24
6.93
7.24
7.26
7.02
6.57
6.02
5.48
5.12
5.02
5.20
5.54
5.92
6.16
6.23
6.12
5.93
5.74
5.59
5.41
5.12
4.63
3.90
2.97
1.88
0.71
-0.52
-1.83
-3.20
-4.56
-5.79
-6.78
-7.50
-8.08
-8.72
-9.64
-10.91
-12.42
-13.87
-14.87
-15.08
-14.29
-12.47
-9.79
-6.55
-3.13
0.13
2.96
5.22
6.88
7.98
8.56
8.67
8.39
7.85
7.23
6.71
6.43
6.37
6.42
6.47
6.46
6.49
6.69
7.13
7.78
8.45
8.90
8.92
8.44
7.52
6.34
5.06
3.80
2.61
1.50
0.46
-0.52
-1.44
-2.34
-3.25
-4.20
-5.20
-6.25
-7.33
-8.46
-9.68
-10.97
-12.29
-13.48
-14.36
-14.70
-14.34
-13.20
-11.31
-8.81
-5.92
-2.89
-0.01
2.52
4.55
5.99
6.85
7.20
7.13
6.77
6.25
5.73
5.34
5.16
5.21
5.49
5.96
6.55
7.16
7.71
8.12
8.32
8.30
8.02
7.49
6.73
5.78
4.70
3.59
2.49
1.40
0.31
-0.82
-1.98
-3.08
-4.03
-4.79
-5.41
-6.05
-6.85
-7.90
-9.13
-10.36
-11.31
-11.74
-11.47
-10.46
-8.79
-6.63
-4.17
-1.61
0.91
3.25
5.29
6.92
8.04
8.61
8.69
8.42
8.00
7.57
7.25
7.05
6.97
6.99
7.10
7.30
7.52
7.70
7.76
7.65
7.36
6.93
6.45
5.98
5.53
5.05
4.42
3.57
2.46
1.17
-0.22
-1.58
-2.85
-4.00
-5.02
-5.88
-6.56
-7.05
-7.43
-7.87
-8.58
-9.67
-11.08
-12.60
-13.88
-14.56
-14.40
-13.28
-11.26
-8.55
-5.43
-2.26
0.64
3.05
4.87
6.14
6.98
7.52
7.85
8.00
7.96
7.72
7.32
6.86
6.47
6.29
6.41
6.83
7.43
8.04
8.46
8.61
8.48
8.18
7.80
7.41
6.97
6.43
5.78
5.04
4.28
3.53
2.78
1.94
0.92
-0.28
-1.59
-2.88
-4.05
-5.05
-5.94
-6.73
-7.42
-7.94
-8.23
-8.37
-8.51
-8.91
-9.74
-10.99
-12.43
-13.66
-14.29
-14.04
-12.87
-10.92
-8.44
-5.69
-2.86
-0.11
2.45
4.69
6.49
7.72
8.36
8.47
8.16
7.63
7.02
6.46
6.04
5.80
5.76
5.92
6.24
6.67
7.14
7.59
7.99
8.28
8.36
8.13
7.54
6.61
5.44
4.22
3.09
2.14
1.33
0.58
-0.23
-1.14
-2.15
-3.18
-4.12
-4.93
-5.61
-6.24
-6.94
-7.80
-8.85
-10.05
-11.30
-12.48
-13.49
-14.21
-14.52
-14.25
-13.32
-11.66
-9.37
-6.63
-3.66
-0.72
2.03
4.41
6.30
7.59
8.25
8.31
7.92
7.25
6.50
5.85
5.42
5.27
5.40
5.78
6.31
6.88
7.40
7.78
8.00
8.03
7.86
7.47
6.82
5.95
4.90
3.82
2.84
2.06
1.48
1.00
0.47
-0.25
-1.22
-2.37
-3.55
-4.64
-5.58
-6.39
-7.15
-7.92
-8.72
-9.53
-10.35
-11.19
-12.11
-13.15
-14.18
-14.99
-15.26
-14.74
-13.32
-11.10
-8.33
-5.35
-2.42
0.26
2.59
4.52
5.98
6.92
7.27
7.11
6.58
5.94
5.42
5.20
5.31
5.60
5.90
6.04
6.01
5.87
5.77
5.81
5.99
6.21
6.33
6.21
5.81
5.16
4.33
3.39
2.37
1.26
0.08
-1.13
-2.30
-3.32
-4.14
-4.76
-5.28
-5.85
-6.62
-7.66
-8.97
-10.39
-11.69
-12.61
-12.90
-12.40
-11.10
-9.15
-6.79
-4.30
-1.93
0.20
2.00
3.48
4.63
5.44
5.87
5.95
5.74
5.37
4.98
4.70
4.58
4.64
4.84
5.11
5.42
5.74
6.05
6.34
6.53
6.58
6.39
5.95
5.31
4.56
3.78
3.03
2.29
1.50
0.60
-0.43
-1.52
-2.56
-3.46
-4.20
-4.85
-5.49
-6.22
-7.04
-7.89
-8.69
-9.45
-10.25
-11.19
-12.32
-13.55
-14.69
-15.49
-15.76
-15.41
-14.46
-12.97
-10.97
-8.53
-5.76
-2.88
-0.20
1.97
3.39
4.00
3.91
3.37
2.65
1.97
1.44
1.04
0.72
0.38
-0.03
-0.50
-0.96
-1.35
-1.62
-1.76
-1.87
-2.09
-2.63
-3.62
-5.09
-6.88
-8.74
-10.37
-11.54
-12.18
-12.31
-11.99
-11.28
-10.16
-8.61
-6.65
-4.42
-2.09
0.18
2.27
4.08
5.51
6.40
6.59
5.97
4.62
2.83
1.02
-0.38
-1.04
-0.83
0.21
1.88
3.95
6.14
8.20
9.92
11.14
11.79
11.89
11.57
10.97
10.22
9.39
8.55
7.76
7.07
6.54
6.19
6.03
6.06
6.27
6.67
7.23
7.84
8.35
8.57
8.34
7.66
6.64
5.46
4.29
3.18
2.10
0.98
-0.23
-1.48
-2.68
-3.70
-4.48
-5.03
-5.47
-5.93
-6.56
-7.48
-8.71
-10.18
-11.70
-12.97
-13.62
-13.36
-12.03
-9.72
-6.71
-3.42
-0.26
2.48
4.65
6.25
7.32
7.95
8.19
8.09
7.73
7.17
6.52
5.87
5.30
4.91
4.73
4.76
4.94
5.17
5.40
5.63
5.89
6.20
6.50
6.65
6.46
5.80
4.70
3.35
1.94
0.61
-0.63
-1.88
-3.22
-4.62
-5.91
-6.91
-7.48
-7.71
-7.80
-8.08
-8.76
-9.91
-11.36
-12.82
-13.94
-14.39
-14.01
-12.73
-10.67
-8.05
-5.18
-2.32
0.31
2.61
4.56
6.17
7.46
8.37
8.88
8.94
8.59
7.94
7.20
6.61
6.38
6.58
7.17
7.96
8.74
9.33
9.64
9.69
9.53
9.22
8.79
8.20
7.47
6.57
5.52
4.31
2.92
1.38
-0.27
-1.89
-3.33
-4.46
-5.23
-5.73
-6.13
-6.59
-7.20
-8.02
-9.03
-10.23
-11.58
-12.95
-14.13
-14.82
-14.76
-13.82
-12.08
-9.74
-7.10
-4.36
-1.65
0.95
3.40
5.52
7.16
8.13
8.37
7.94
7.06
6.01
5.07
4.45
4.26
4.47
4.97
5.59
6.17
6.63
6.91
7.04
7.04
6.93
6.73
6.41
5.94
5.28
4.38
3.27
1.98
0.58
-0.83
-2.18
-3.43
-4.55
-5.50
-6.30
-6.98
-7.64
-8.39
-9.30
-10.32
-11.22
-11.68
-11.38
-10.20
-8.23
-5.78
-3.21
-0.75
1.54
3.67
5.69
7.50
8.90
9.67
9.73
9.14
8.17
7.11
6.21
5.61
5.34
5.39
5.71
6.20
6.80
7.37
7.82
8.10
8.17
8.01
7.58
6.84
5.79
4.49
3.05
1.61
0.25
-1.03
-2.27
-3.51
-4.69
-5.74
-6.58
-7.22
-7.76
-8.38
-9.23
-10.41
-11.87
-13.46
-14.89
-15.82
-15.94
-15.02
-13.03
-10.15
-6.72
-3.15
0.17
3.00
5.24
6.87
7.93
8.46
8.55
8.30
7.89
7.47
7.18
7.06
7.09
7.22
7.44
7.72
8.09
8.52
8.93
9.21
9.23
8.95
8.37
7.55
6.59
5.58
4.58
3.61
2.68
1.80
0.93
0.03
-0.95
-2.05
-3.26
-4.52
-5.75
-6.89
-7.97
-9.09
-10.35
-11.80
-13.33
-14.70
-15.64
-15.89
-15.34
-13.99
-11.91
-9.24
-6.14
-2.84
0.35
3.11
5.19
6.49
7.11
7.27
7.21
7.09
6.95
6.76
6.50
6.19
5.93
5.80
5.87
6.12
6.47
6.82
7.07
7.17
7.13
6.98
6.76
6.46
6.01
5.30
4.27
2.93
1.41
-0.10
-1.42
-2.49
-3.35
-4.12
-4.89
-5.72
-6.62
-7.56
-8.58
-9.69
-10.88
-12.02
-12.88
-13.20
-12.75
-11.48
-9.48
-6.97
-4.17
-1.34
1.35
3.74
5.74
7.28
8.31
8.88
9.04
8.90
8.49
7.87
7.08
6.23
5.49
5.03
5.02
5.50
6.33
7.26
8.01
8.32
8.09
7.39
6.41
5.33
4.27
3.24
2.17
0.98
-0.32
-1.67
-2.92
-4.00
-4.89
-5.70
-6.58
-7.61
-8.82
-10.14
-11.45
-12.63
-13.56
-14.10
-14.09
-13.38
-11.89
-9.69
-6.97
-3.99
-1.02
1.73
4.11
6.03
7.39
8.16
8.38
8.20
7.82
7.45
7.21
7.12
7.14
7.17
7.20
7.22
7.29
7.45
7.69
7.95
8.13
8.13
7.90
7.46
6.89
6.28
5.67
5.03
4.25
3.24
1.95
0.42
-1.19
-2.77
-4.20
-5.45
-6.56
-7.58
-8.59
-9.67
-10.86
-12.20
-13.63
-15.01
-16.11
-16.66
-16.46
-15.42
-13.56
-11.04
-8.12
-5.08
-2.20
0.30
2.27
3.68
4.61
5.19
5.55
5.77
5.88
5.87
5.73
5.48
5.18
4.89
4.71
4.71
4.91
5.30
5.80
6.29
6.64
6.76
6.64
6.28
5.74
5.04
4.14
3.03
1.73
0.32
-1.08
-2.34
-3.36
-4.15
-4.82
-5.49
-6.30
-7.31
-8.55
-9.91
-11.26
-12.41
-13.16
-13.30
-12.75
-11.45
-9.47
-6.96
-4.14
-1.27
1.40
3.66
5.35
6.44
6.94
7.00
6.78
6.47
6.19
6.00
5.87
5.79
5.76
5.83
6.07
6.52
7.12
7.72
8.13
8.20
7.91
7.38
6.77
6.25
5.81
5.34
4.63
3.56
2.11
0.47
-1.12
-2.43
-3.37
-4.03
-4.61
-5.34
-6.36
-7.68
-9.22
-10.78
-12.16
-13.20
-13.78
-13.80
-13.17
-11.87
-9.92
-7.47
-4.75
-2.03
0.50
2.73
4.62
6.16
7.28
7.92
7.99
7.59
6.91
6.25
5.86
5.81
6.02
6.30
6.47
6.52
6.54
6.61
6.81
7.05
7.19
7.10
6.72
6.08
5.29
4.46
3.66
2.87
2.03
1.07
-0.04
-1.25
-2.47
-3.58
-4.53
-5.36
-6.16
-7.03
-8.05
-9.20
-10.44
-11.64
-12.67
-13.35
-13.51
-12.96
-11.64
-9.60
-7.06
-4.29
-1.54
1.00
3.24
5.07
6.39
7.11
7.22
6.84
6.19
5.51
4.97
4.64
4.47
4.39
4.37
4.45
4.70
5.11
5.64
6.14
6.49
6.64
6.56
6.26
5.73
4.98
4.05
3.00
1.92
0.88
-0.09
-1.04
-2.04
-3.14
-4.29
-5.41
-6.37
-7.14
-7.75
-8.27
-8.82
-9.46
-10.20
-11.00
-11.76
-12.33
-12.53
-12.16
-11.09
-9.31
-6.96
-4.29
-1.61
0.78
2.74
4.23
5.29
5.95
6.24
6.17
5.79
5.22
4.64
4.20
4.04
4.16
4.50
4.94
5.38
5.74
5.96
6.03
5.92
5.63
5.15
4.52
3.75
2.84
1.80
0.63
-0.59
-1.82
-2.95
-3.91
-4.68
-5.29
-5.86
-6.55
-7.49
-8.70
-10.06
-11.30
-12.12
-12.28
-11.68
-10.39
-8.57
-6.37
-3.94
-1.40
1.09
3.37
5.23
6.53
7.22
7.36
7.05
6.45
5.69
4.91
4.24
3.78
3.60
3.70
3.99
4.38
4.76
5.06
5.24
5.27
5.11
4.75
4.18
3.43
2.55
1.56
0.50
-0.61
-1.73
-2.82
-3.79
-4.66
-5.49
-6.39
-7.46
-8.75
-10.20
-11.67
-13.01
-14.02
-14.56
-14.50
-13.73
-12.21
-10.02
-7.34
-4.41
-1.54
1.04
3.21
4.90
6.14
6.94
7.34
7.34
7.02
6.46
5.81
5.24
4.89
4.83
5.04
5.39
5.75
6.01
6.15
6.21
6.26
6.32
6.36
6.28
5.97
5.39
4.54
3.48
2.29
1.01
-0.33
-1.73
-3.18
-4.58
-5.85
-6.91
-7.74
-8.40
-9.01
-9.66
-10.43
-11.29
-12.16
-12.89
-13.31
-13.21
-12.47
-11.01
-8.91
-6.34
-3.55
-0.80
1.66
3.68
5.16
6.10
6.52
6.51
6.15
5.57
4.85
4.15
3.57
3.26
3.27
3.58
4.07
4.57
4.93
5.07
5.03
4.88
4.66
4.31
3.76
2.90
1.75
0.45
-0.82
-1.90
-2.72
-3.34
-3.89
-4.50
-5.27
-6.21
-7.33
-8.60
-9.93
-11.14
-11.98
-12.18
-11.51
-9.98
-7.72
-5.05
-2.26
0.40
2.78
4.79
6.34
7.36
7.77
7.64
7.13
6.49
5.96
5.66
5.54
5.48
5.33
5.05
4.72
4.49
4.47
4.67
5.01
5.31
5.47
5.40
5.12
4.65
3.98
3.10
1.97
0.62
-0.85
-2.30
-3.58
-4.64
-5.48
-6.23
-7.04
-8.02
-9.24
-10.67
-12.19
-13.57
-14.52
-14.77
-14.11
-12.54
-10.20
-7.42
-4.50
-1.67
0.97
3.40
5.59
7.39
8.63
9.18
9.03
8.34
7.37
6.37
5.52
4.89
4.52
4.45
4.74
5.38
6.32
7.37
8.27
8.77
8.71
8.06
6.95
5.62
4.33
3.26
2.44
1.79
1.12
0.31
-0.73
-1.96
-3.30
-4.64
-5.92
-7.08
-8.11
-9.06
-10.03
-11.13
-12.41
-13.81
-15.05
-15.75
-15.53
-14.21
-11.84
-8.71
-5.20
-1.66
1.70
4.71
7.27
9.21
10.41
10.79
10.42
9.51
8.37
7.33
6.64
6.37
6.51
6.92
7.43
7.90
8.27
8.56
8.80
8.98
9.04
8.85
8.29
7.37
6.17
4.90
3.69
2.64
1.68
0.72
-0.36
-1.59
-2.92
-4.23
-5.42
-6.43
-7.31
-8.19
-9.21
-10.46
-11.91
-13.41
-14.70
-15.49
-15.53
-14.68
-12.95
-10.48
-7.49
-4.33
-1.29
1.35
3.41
4.83
5.61
5.80
5.45
4.65
3.57
2.44
1.51
0.98
0.88
1.06
1.28
1.30
1.01
0.46
-0.23
-0.94
-1.64
-2.39
-3.29
-4.40
-5.71
-7.18
-8.79
-10.50
-12.30
-14.12
-15.79
-17.07
-17.71
-17.56
-16.65
-15.18
-13.43
-11.61
-9.77
-7.75
-5.30
-2.21
1.59
5.92
10.44
14.72
18.37
21.13
22.92
23.78
23.84
23.28
22.28
21.01
19.63
18.24
16.89
15.65
14.54
13.61
12.92
12.51
12.33
12.32
12.32
12.15
11.70
10.93
9.89
8.68
7.42
6.16
4.92
3.66
2.38
1.13
-0.03
-1.06
-1.98
-2.93
-4.08
-5.57
-7.43
-9.55
-11.66
-13.42
-14.49
-14.60
-13.63
-11.63
-8.85
-5.63
-2.40
0.54
3.00
4.98
6.53
7.67
8.41
8.72
8.60
8.14
7.50
6.83
6.28
5.95
5.85
5.99
6.34
6.78
7.19
7.45
7.46
7.25
6.85
6.37
5.80
5.10
4.20
3.07
1.74
0.33
-1.02
-2.23
-3.27
-4.17
-5.01
-5.81
-6.64
-7.50
-8.42
-9.42
-10.48
-11.49
-12.25
-12.51
-12.06
-10.80
-8.81
-6.34
-3.70
-1.20
0.97
2.72
4.09
5.13
5.86
6.26
6.29
5.95
5.38
4.79
4.40
4.38
4.72
5.26
5.79
6.11
6.16
5.99
5.72
5.46
5.28
5.15
5.00
4.75
4.32
3.67
2.78
1.68
0.44
-0.85
-2.11
-3.30
-4.39
-5.38
-6.22
-6.87
-7.34
-7.72
-8.20
-8.98
-10.13
-11.50
-12.76
-13.45
-13.22
-11.95
-9.76
-6.99
-4.02
-1.21
1.22
3.12
4.45
5.23
5.51
5.41
5.06
4.60
4.12
3.66
3.26
2.93
2.75
2.75
2.96
3.33
3.80
4.26
4.65
4.91
4.97
4.79
4.32
3.57
2.57
1.43
0.27
-0.83
-1.81
-2.67
-3.43
-4.14
-4.87
-5.70
-6.69
-7.83
-9.00
-10.02
-10.68
-10.78
-10.25
-9.14
-7.57
-5.72
-3.73
-1.72
0.26
2.10
3.72
5.00
5.85
6.26
6.27
6.01
5.59
5.08
4.53
3.98
3.50
3.19
3.15
3.41
3.93
4.57
5.20
5.66
5.84
5.66
5.08
4.16
3.05
1.95
1.04
0.39
-0.12
-0.70
-1.56
-2.76
-4.18
-5.60
-6.81
-7.72
-8.37
-8.94
-9.60
-10.46
-11.52
-12.64
-13.58
-14.06
-13.83
-12.78
-10.94
-8.53
-5.84
-3.17
-0.75
1.33
3.02
4.31
5.18
5.62
5.63
5.31
4.87
4.53
4.49
4.75
5.22
5.72
6.09
6.29
6.38
6.47
6.61
6.72
6.67
6.34
5.70
4.85
3.92
3.08
2.36
1.75
1.16
0.53
-0.18
-0.96
-1.76
-2.59
-3.44
-4.36
-5.31
-6.32
-7.34
-8.34
-9.29
-10.19
-11.03
-11.82
-12.55
-13.12
-13.39
-13.13
-12.17
-10.47
-8.16
-5.53
-2.90
-0.49
1.59
3.34
4.73
5.67
6.05
5.81
5.08
4.13
3.28
2.77
2.67
2.94
3.45
4.07
4.71
5.27
5.69
5.91
5.93
5.81
5.64
5.44
5.15
4.71
4.02
3.09
2.00
0.84
-0.32
-1.42
-2.43
-3.35
-4.15
-4.85
-5.49
-6.14
-6.86
-7.72
-8.70
-9.74
-10.74
-11.52
-11.89
-11.63
-10.57
-8.70
-6.18
-3.29
-0.42
2.13
4.18
5.70
6.77
7.48
7.86
7.92
7.61
6.95
6.05
5.14
4.46
4.21
4.47
5.12
5.97
6.81
7.48
7.87
7.96
7.74
7.23
6.50
5.61
4.68
3.76
2.83
1.81
0.63
-0.73
-2.20
-3.59
-4.77
-5.64
-6.27
-6.77
-7.32
-8.01
-8.92
-10.05
-11.35
-12.72
-13.96
-14.80
-14.97
-14.23
-12.52
-9.98
-6.92
-3.73
-0.77
1.75
3.74
5.24
6.36
7.17
7.71
7.99
7.98
7.74
7.36
6.97
6.70
6.63
6.74
6.96
7.23
7.53
7.89
8.32
8.79
9.18
9.28
8.96
8.18
7.02
5.67
4.34
3.17
2.18
1.34
0.57
-0.22
-1.08
-2.03
-3.09
-4.22
-5.37
-6.44
-7.37
-8.16
-8.90
-9.75
-10.86
-12.25
-13.79
-15.16
-15.99
-15.99
-14.97
-12.95
-10.13
-6.79
-3.32
-0.03
2.79
4.96
6.42
7.20
7.45
7.32
6.98
6.56
6.14
5.74
5.41
5.17
5.08
5.21
5.56
6.12
6.78
7.40
7.82
7.94
7.71
7.16
6.36
5.39
4.36
3.32
2.31
1.34
0.42
-0.48
-1.36
-2.18
-2.94
-3.61
-4.26
-4.93
-5.72
-6.69
-7.87
-9.21
-10.60
-11.82
-12.60
-12.64
-11.75
-9.89
-7.25
-4.19
-1.11
1.64
3.92
5.75
7.20
8.36
9.20
9.64
9.60
9.03
8.05
6.86
5.76
5.00
4.76
5.05
5.73
6.57
7.31
7.84
8.11
8.17
8.07
7.77
7.20
6.33
5.20
3.96
2.80
1.81
0.95
0.10
-0.91
-2.13
-3.45
-4.70
-5.73
-6.49
-7.04
-7.51
-8.07
-8.81
-9.77
-10.92
-12.13
-13.23
-13.99
-14.20
-13.67
-12.34
-10.27
-7.61
-4.60
-1.50
1.44
3.99
5.99
7.38
8.17
8.44
8.30
7.85
7.22
6.58
6.09
5.88
5.97
6.32
6.78
7.25
7.68
8.11
8.56
8.99
9.25
9.13
8.50
7.38
5.99
4.60
3.44
2.60
1.97
1.35
0.55
-0.51
-1.78
-3.08
-4.28
-5.28
-6.10
-6.83
-7.54
-8.30
-9.13
-10.03
-10.96
-11.90
-12.75
-13.34
-13.44
-12.81
-11.35
-9.11
-6.29
-3.22
-0.21
2.50
4.74
6.42
7.50
7.97
7.88
7.32
6.45
5.44
4.49
3.82
3.56
3.79
4.47
5.45
6.46
7.23
7.59
7.51
7.13
6.63
6.13
5.64
5.06
4.25
3.16
1.84
0.47
-0.74
-1.72
-2.50
-3.24
-4.07
-5.10
-6.27
-7.46
-8.54
-9.46
-10.24
-10.92
-11.46
-11.73
-11.47
-10.47
-8.68
-6.23
-3.39
-0.47
2.25
4.62
6.54
7.91
8.65
8.74
8.26
7.40
6.42
5.58
5.03
4.81
4.87
5.09
5.38
5.62
5.74
5.68
5.48
5.21
4.95
4.72
4.45
4.01
3.32
2.37
1.25
0.13
-0.89
-1.84
-2.81
-3.91
-5.16
-6.44
-7.60
-8.53
-9.22
-9.83
-10.51
-11.30
-12.10
-12.66
-12.72
-12.12
-10.83
-8.96
-6.63
-4.00
-1.21
1.56
4.05
6.01
7.23
7.67
7.47
6.91
6.26
5.72
5.36
5.13
4.92
4.72
4.56
4.55
4.77
5.20
5.73
6.18
6.42
6.39
6.10
5.62
4.98
4.17
3.21
2.14
1.05
0.06
-0.81
-1.63
-2.50
-3.53
-4.67
-5.82
-6.82
-7.61
-8.26
-8.91
-9.68
-10.58
-11.47
-12.08
-12.17
-11.57
-10.28
-8.41
-6.15
-3.72
-1.30
0.98
3.02
4.73
6.03
6.79
6.94
6.47
5.51
4.33
3.25
2.61
2.54
3.02
3.85
4.76
5.53
6.03
6.24
6.17
5.85
5.30
4.52
3.58
2.56
1.55
0.65
-0.12
-0.82
-1.51
-2.29
-3.20
-4.20
-5.20
-6.11
-6.87
-7.54
-8.25
-9.13
-10.20
-11.35
-12.31
-12.73
-12.32
-11.00
-8.87
-6.23
-3.45
-0.82
1.44
3.28
4.69
5.70
6.28
6.43
6.18
5.65
4.99
4.40
4.01
3.89
4.01
4.27
4.57
4.83
5.00
5.10
5.17
5.25
5.31
5.28
4.99
4.32
3.24
1.85
0.35
-1.04
-2.15
-2.96
-3.57
-4.15
-4.87
-5.85
-7.11
-8.55
-10.02
-11.28
-12.09
-12.22
-11.57
-10.11
-8.01
-5.48
-2.83
-0.28
1.98
3.86
5.35
6.44
7.15
7.47
7.42
7.06
6.49
5.85
5.33
5.05
5.07
5.33
5.73
6.14
6.51
6.77
6.91
6.89
6.66
6.17
5.42
4.46
3.38
2.26
1.12
-0.04
-1.24
-2.47
-3.64
-4.67
-5.51
-6.20
-6.81
-7.41
-8.08
-8.86
-9.75
-10.74
-11.79
-12.77
-13.49
-13.68
-13.14
-11.76
-9.62
-6.96
-4.07
-1.25
1.34
3.61
5.50
6.94
7.86
8.20
8.00
7.42
6.72
6.14
5.85
5.89
6.17
6.59
7.03
7.44
7.79
8.08
8.30
8.42
8.41
8.26
7.96
7.50
6.88
6.12
5.20
4.13
2.87
1.42
-0.19
-1.83
-3.34
-4.55
-5.39
-5.93
-6.37
-6.98
-7.91
-9.18
-10.64
-12.10
-13.35
-14.17
-14.43
-13.95
-12.67
-10.62
-8.01
-5.15
-2.34
0.17
2.29
4.02
5.36
6.29
6.76
6.77
6.41
5.86
5.34
5.02
4.97
5.18
5.59
6.13
6.71
7.21
7.56
7.69
7.61
7.34
6.94
6.43
5.82
5.08
4.21
3.20
2.09
0.92
-0.27
-1.44
-2.57
-3.63
-4.57
-5.36
-5.97
-6.46
-6.94
-7.54
-8.37
-9.42
-10.53
-11.38
-11.59
-10.86
-9.09
-6.47
-3.38
-0.29
2.42
4.57
6.17
7.33
8.14
8.61
8.66
8.27
7.52
6.65
5.96
5.66
5.79
6.23
6.77
7.22
7.52
7.67
7.76
7.83
7.85
7.75
7.44
6.87
6.03
4.99
3.81
2.61
1.45
0.34
-0.71
-1.75
-2.76
-3.71
-4.55
-5.26
-5.90
-6.58
-7.45
-8.59
-9.98
-11.46
-12.81
-13.77
-14.13
-13.74
-12.55
-10.62
-8.16
-5.41
-2.67
-0.13
2.11
4.01
5.62
6.91
7.83
8.29
8.29
7.89
7.24
6.56
6.01
5.70
5.67
5.88
6.30
6.86
7.44
7.89
8.09
7.95
7.49
6.79
5.99
5.21
4.53
3.93
3.33
2.61
1.68
0.52
-0.81
-2.16
-3.39
-4.41
-5.20
-5.84
-6.44
-7.09
-7.84
-8.68
-9.58
-10.44
-11.15
-11.52
-11.38
-10.53
-8.93
-6.67
-4.02
-1.31
1.14
3.16
4.70
5.80
6.49
6.81
6.76
6.40
5.85
5.26
4.79
4.53
4.49
4.62
4.87
5.17
5.51
5.85
6.13
6.32
6.38
6.29
6.04
5.60
4.91
3.92
2.62
1.11
-0.45
-1.83
-2.87
-3.52
-3.89
-4.16
-4.54
-5.18
-6.10
-7.22
-8.41
-9.58
-10.61
-11.38
-11.75
-11.51
-10.52
-8.70
-6.17
-3.23
-0.23
2.47
4.64
6.20
7.15
7.57
7.53
7.09
6.36
5.49
4.68
4.09
3.82
3.88
4.15
4.51
4.86
5.10
5.20
5.10
4.82
4.38
3.88
3.41
3.04
2.75
2.45
2.01
1.35
0.45
-0.65
-1.87
-3.12
-4.30
-5.34
-6.15
-6.73
-7.17
-7.65
-8.35
-9.39
-10.68
-11.95
-12.86
-13.11
-12.56
-11.28
-9.43
-7.24
-4.89
-2.51
-0.21
1.90
3.68
5.04
5.90
6.29
6.27
5.97
5.50
4.99
4.53
4.18
3.98
3.93
4.02
4.23
4.50
4.81
5.11
5.37
5.57
5.66
5.59
5.32
4.80
4.01
3.00
1.85
0.67
-0.50
-1.60
-2.61
-3.52
-4.30
-4.93
-5.46
-5.99
-6.61
-7.43
-8.47
-9.67
-10.90
-11.95
-12.67
-12.87
-12.44
-11.31
-9.51
-7.19
-4.56
-1.93
0.44
2.36
3.76
4.65
5.09
5.16
4.95
4.55
4.08
3.68
3.47
3.51
3.76
4.14
4.50
4.76
4.86
4.82
4.69
4.51
4.32
4.10
3.80
3.31
2.54
1.42
-0.03
-1.65
-3.22
-4.50
-5.35
-5.77
-5.89
-5.93
-6.10
-6.57
-7.36
-8.42
-9.60
-10.64
-11.27
-11.23
-10.34
-8.62
-6.26
-3.60
-1.00
1.23
2.96
4.19
5.03
5.57
5.86
5.93
5.80
5.51
5.16
4.82
4.56
4.40
4.35
4.39
4.50
4.61
4.71
4.77
4.83
4.90
4.98
4.98
4.77
4.18
3.14
1.72
0.11
-1.45
-2.77
-3.80
-4.59
-5.31
-6.10
-7.03
-8.07
-9.14
-10.13
-10.98
-11.67
-12.18
-12.45
-12.33
-11.61
-10.13
-7.87
-5.02
-1.93
0.98
3.39
5.14
6.28
6.90
7.13
7.05
6.68
6.08
5.36
4.69
4.23
4.12
4.37
4.89
5.55
6.18
6.65
6.87
6.81
6.46
5.88
5.13
4.31
3.48
2.65
1.81
0.93
-0.02
-1.06
-2.18
-3.33
-4.46
-5.54
-6.54
-7.44
-8.25
-9.02
-9.82
-10.73
-11.80
-12.99
-14.17
-15.09
-15.49
-15.16
-13.98
-12.02
-9.47
-6.66
-3.94
-1.60
0.19
1.39
2.05
2.26
2.06
1.47
0.53
-0.68
-1.99
-3.16
-4.00
-4.40
-4.42
-4.23
-4.05
-4.03
-4.28
-4.75
-5.39
-6.10
-6.81
-7.48
-8.07
-8.56
-8.87
-8.94
-8.72
-8.13
-7.14
-5.69
-3.79
-1.56
0.78
2.90
4.48
5.29
5.35
4.87
4.20
3.74
3.79
4.47
5.77
7.54
9.61
11.80
13.92
15.80
17.25
18.09
18.21
17.63
16.50
15.11
13.73
12.62
11.82
11.27
10.80
10.31
9.79
9.37
9.21
9.37
9.76
10.09
10.08
9.53
8.43
6.96
5.35
3.79
2.32
0.90
-0.50
-1.82
-2.96
-3.83
-4.41
-4.87
-5.44
-6.33
-7.64
-9.28
-11.01
-12.55
-13.63
-14.05
-13.69
-12.51
-10.58
-8.00
-5.00
-1.80
1.31
4.09
6.38
8.03
9.02
9.35
9.15
8.59
7.88
7.22
6.78
6.63
6.78
7.17
7.73
8.32
8.83
9.13
9.17
8.95
8.59
8.19
7.81
7.42
6.87
6.03
4.87
3.43
1.87
0.37
-0.98
-2.17
-3.24
-4.23
-5.15
-5.98
-6.72
-7.41
-8.13
-9.02
-10.12
-11.39
-12.66
-13.66
-14.07
-13.64
-12.26
-9.99
-7.08
-3.87
-0.71
2.09
4.32
5.89
6.80
7.11
6.93
6.40
5.66
4.90
4.27
3.85
3.70
3.78
4.02
4.35
4.73
5.13
5.58
6.03
6.43
6.64
6.52
5.97
4.97
3.60
2.02
0.42
-1.05
-2.35
-3.46
-4.41
-5.20
-5.81
-6.23
-6.50
-6.73
-7.06
-7.59
-8.32
-9.05
-9.44
-9.17
-8.04
-6.07
-3.49
-0.68
2.02
4.36
6.27
7.72
8.73
9.30
9.38
9.00
8.21
7.18
6.12
5.20
4.57
4.29
4.32
4.58
4.96
5.36
5.69
5.89
5.93
5.80
5.50
5.04
4.44
3.70
2.84
1.89
0.87
-0.18
-1.24
-2.28
-3.31
-4.36
-5.46
-6.66
-7.98
-9.38
-10.73
-11.82
-12.40
-12.26
-11.30
-9.56
-7.21
-4.54
-1.81
0.73
2.97
4.81
6.20
7.12
7.54
7.49
7.07
6.41
5.66
4.98
4.47
4.17
4.07
4.13
4.31
4.53
4.77
4.98
5.14
5.22
5.16
4.91
4.39
3.59
2.52
1.27
-0.02
-1.22
-2.22
-3.03
-3.71
-4.37
-5.09
-5.88
-6.72
-7.55
-8.34
-9.12
-9.90
-10.66
-11.26
-11.43
-10.91
-9.52
-7.29
-4.48
-1.48
1.29
3.55
5.14
6.08
6.49
6.51
6.27
5.90
5.50
5.12
4.81
4.58
4.42
4.37
4.45
4.71
5.15
5.69
6.19
6.46
6.39
5.93
5.18
4.28
3.38
2.56
1.86
1.28
0.77
0.27
-0.31
-1.09
-2.14
-3.44
-4.88
-6.24
-7.32
-8.00
-8.35
-8.55
-8.86
-9.51
-10.54
-11.84
-13.11
-13.94
-13.97
-12.93
-10.81
-7.83
-4.42
-1.08
1.79
3.96
5.41
6.20
6.48
6.28
5.67
4.72
3.59
2.51
1.70
1.34
1.47
1.98
2.72
3.47
4.07
4.41
4.45
4.24
3.90
3.54
3.25
3.00
2.71
2.24
1.52
0.54
-0.61
-1.78
-2.87
-3.82
-4.63
-5.35
-6.04
-6.76
-7.54
-8.36
-9.16
-9.85
-10.30
-10.37
-9.92
-8.91
-7.37
-5.43
-3.28
-1.11
0.93
2.74
4.25
5.41
6.18
6.51
6.45
6.06
5.46
4.79
4.18
3.74
3.54
3.66
4.08
4.72
5.40
5.94
6.17
6.04
5.60
4.97
4.29
3.62
2.95
2.24
1.41
0.39
-0.80
-2.15
-3.58
-4.96
-6.16
-7.08
-7.69
-8.08
-8.44
-9.00
-9.93
-11.23
-12.70
-13.95
-14.56
-14.23
-12.85
-10.58
-7.76
-4.75
-1.88
0.69
2.84
4.53
5.73
6.45
6.74
6.72
6.51
6.25
6.00
5.76
5.51
5.26
5.06
5.00
5.11
5.39
5.71
5.90
5.82
5.42
4.79
4.05
3.34
2.68
2.05
1.33
0.41
-0.74
-2.07
-3.47
-4.84
-6.07
-7.14
-8.04
-8.85
-9.67
-10.59
-11.71
-13.01
-14.39
-15.67
-16.60
-16.97
-16.60
-15.41
-13.38
-10.58
-7.15
-3.36
0.44
3.84
6.45
8.03
8.58
8.29
7.50
6.59
5.83
5.38
5.28
5.49
5.92
6.50
7.10
7.65
8.10
8.44
8.71
8.94
9.13
9.23
9.17
8.95
8.59
8.14
7.59
6.91
5.99
4.75
3.21
1.47
-0.26
-1.83
-3.13
-4.18
-5.09
-6.02
-7.10
-8.40
-9.89
-11.44
-12.86
-13.92
-14.35
-13.96
-12.62
-10.39
-7.47
-4.21
-1.01
1.78
3.98
5.52
6.46
6.91
6.94
6.62
6.04
5.36
4.78
4.48
4.61
5.17
6.04
7.04
7.95
8.61
8.91
8.80
8.31
7.54
6.62
5.67
4.76
3.86
2.87
1.71
0.32
-1.21
-2.75
-4.10
-5.11
-5.76
-6.09
-6.23
-6.34
-6.55
-6.99
-7.66
-8.50
-9.30
-9.80
-9.71
-8.83
-7.17
-4.87
-2.27
0.32
2.60
4.46
5.89
6.97
7.77
8.32
8.59
8.50
8.05
7.32
6.50
5.79
5.35
5.26
5.47
5.90
6.41
6.85
7.08
7.03
6.65
5.98
5.12
4.17
3.17
2.06
0.72
-0.92
-2.81
-4.77
-6.61
-8.22
-9.55
-10.70
-11.92
-13.43
-15.34
-17.54
-19.79
-21.88
-23.64
-24.74
-24.97
-24.22
-22.54
-19.98
-16.54
-12.26
-7.37
-2.34
2.60
7.00
10.11
11.16
9.84
6.70
3.01
0.37
0.10
3.33
10.20
19.84
30.64
40.96
49.56
55.63
58.75
55.89
45.96
31.12
16.15
5.63
1.61
3.37
8.38
13.65
16.72
16.94
14.95
12.04
9.27
7.26
6.22
6.08
6.76
8.08
9.91
11.49
11.32
7.83
0.77
-7.84
-14.91
-16.98
-12.26
-1.57
11.65
22.83
28.23
26.75
20.01
11.02
2.56
-4.07
-8.93
-12.77
-16.01
-18.51
-19.57
-18.54
-15.43
-10.76
-5.39
-0.10
4.42
8.02
9.69
7.86
0.89
-12.15
-30.36
-50.65
-68.14
-77.61
-75.40
-61.01
-37.25
-9.37
16.81
36.79
48.38
51.80
48.80
41.73
32.66
23.25
14.77
8.07
3.71
1.74
1.76
2.98
4.44
5.24
4.86
3.22
0.77
-1.75
-3.50
-3.95
-3.06
-1.35
0.38
1.39
1.40
0.59
-0.42
-1.00
-0.76
0.29
1.80
3.27
4.28
4.71
4.66
4.44
4.36
4.60
5.16
5.83
6.34
6.41
5.89
4.76
3.17
1.35
-0.53
-2.31
-3.96
-5.54
-7.17
-8.96
-10.97
-13.17
-15.44
-17.66
-19.72
-21.61
-23.38
-25.11
-26.84
-28.57
-30.22
-31.67
-32.82
-33.56
-33.85
-33.68
-33.04
-31.95
-30.36
-28.19
-25.33
-21.74
-17.46
-12.67
-7.62
-2.56
2.28
6.71
10.54
13.56
15.56
16.36
15.99
14.60
12.52
10.07
7.58
5.28
3.33
1.89
1.06
0.92
1.43
2.48
3.81
5.17
6.34
7.22
7.84
8.34
8.87
9.52
10.26
10.95
11.40
11.45
11.03
10.15
8.95
7.55
6.06
4.57
3.15
1.89
0.92
0.33
0.16
0.30
0.58
0.79
0.82
0.66
0.37
0.04
-0.29
-0.70
-1.23
-1.91
-2.66
-3.32
-3.70
-3.71
-3.38
-2.82
-2.18
-1.55
-0.97
-0.45
0.00
0.27
0.26
-0.10
-0.80
-1.72
-2.70
-3.64
-4.49
-5.28
-6.02
-6.70
-7.22
-7.57
-7.78
-8.00
-8.35
-8.86
-9.46
-10.01
-10.37
-10.54
-10.62
-10.75
-10.99
-11.32
-11.65
-11.83
-11.73
-11.27
-10.42
-9.21
-7.70
-5.96
-4.03
-1.96
0.23
2.51
4.77
6.84
8.54
9.75
10.47
10.81
10.95
11.00
10.98
10.85
10.55
10.11
9.58
9.06
8.58
8.12
7.61
6.92
5.93
4.58
2.93
1.11
-0.68
-2.27
-3.63
-4.87
-6.18
-7.77
-9.69
-11.76
-13.66
-15.00
-15.48
-15.00
-13.67
-11.72
-9.47
-7.20
-5.14
-3.42
-2.08
-1.10
-0.41
0.06
0.38
0.56
0.59
0.50
0.34
0.25
0.35
0.72
1.32
2.00
2.60
2.99
3.11
3.05
2.88
2.65
2.36
1.94
1.34
0.61
-0.15
-0.89
-1.62
-2.49
-3.64
-5.14
-6.87
-8.52
-9.68
-10.02
-9.41
-7.99
-6.05
-3.91
-1.80
0.21
2.14
3.99
5.66
6.97
7.74
7.90
7.54
6.90
6.25
5.78
5.57
5.55
5.65
5.81
6.02
6.33
6.73
7.14
7.41
7.38
6.95
6.17
5.15
4.08
3.05
2.04
0.99
-0.22
-1.64
-3.24
-4.86
-6.36
-7.57
-8.35
-8.59
-8.23
-7.27
-5.82
-4.03
-2.07
-0.10
1.82
3.68
5.43
7.02
8.36
9.38
10.10
10.56
10.82
10.89
10.74
10.32
9.70
9.03
8.52
8.35
8.56
9.01
9.42
9.56
9.30
8.67
7.86
7.06
6.37
5.78
5.15
4.31
3.17
1.73
0.09
-1.61
-3.19
-4.52
-5.47
-5.92
-5.76
-4.92
-3.40
-1.30
1.18
3.73
6.03
7.84
9.04
9.68
9.91
9.90
9.79
9.61
9.38
9.08
8.76
8.44
8.17
7.96
7.78
7.64
7.53
7.46
7.41
7.30
7.03
6.54
5.87
5.13
4.44
3.90
3.50
3.12
2.62
1.90
1.01
0.05
-0.81
-1.51
-2.12
-2.79
-3.73
-5.02
-6.56
-8.06
-9.19
-9.66
-9.36
-8.36
-6.86
-5.09
-3.20
-1.31
0.52
2.19
3.55
4.48
4.90
4.88
4.59
4.24
3.99
3.91
3.97
4.07
4.11
4.08
4.03
4.01
4.06
4.17
4.28
4.33
4.29
4.18
4.03
3.87
3.70
3.51
3.25
2.88
2.39
1.81
1.18
0.58
0.04
-0.43
-0.88
-1.37
-1.94
-2.56
-3.15
-3.61
-3.92
-4.10
-4.27
-4.57
-5.09
-5.87
-6.82
-7.77
-8.53
-8.94
-8.96
-8.63
-8.07
-7.42
-6.75
-6.02
-5.15
-4.07
-2.82
-1.51
-0.35
0.53
1.04
1.21
1.13
0.89
0.59
0.28
0.03
-0.10
-0.06
0.14
0.48
0.87
1.19
1.35
1.29
1.03
0.66
0.29
0.03
-0.08
-0.06
-0.00
-0.02
-0.19
-0.52
-0.91
-1.24
-1.39
-1.33
-1.14
-0.98
-1.00
-1.31
-1.91
-2.68
-3.46
-4.11
-4.58
-4.91
-5.16
-5.41
-5.70
-6.07
-6.51
-7.00
-7.47
-7.79
-7.85
-7.52
-6.77
-5.69
-4.40
-3.06
-1.81
-0.74
0.07
0.56
0.69
0.49
0.10
-0.31
-0.53
-0.49
-0.20
0.16
0.43
0.47
0.29
0.01
-0.21
-0.23
-0.00
0.42
0.95
1.47
1.86
2.03
1.93
1.55
0.92
0.12
-0.72
-1.48
-2.05
-2.40
-2.54
-2.53
-2.43
-2.30
-2.16
-2.04
-1.98
-2.03
-2.23
-2.60
-3.12
-3.74
-4.36
-4.92
-5.37
-5.71
-5.98
-6.17
-6.29
-6.27
-6.07
-5.64
-4.96
-4.05
-2.94
-1.71
-0.48
0.62
1.44
1.87
1.88
1.55
1.03
0.52
0.18
0.08
0.20
0.47
0.79
1.13
1.46
1.80
2.13
2.44
2.68
2.84
2.91
2.91
2.82
2.59
2.17
1.57
0.84
0.08
-0.61
-1.20
-1.71
-2.16
-2.54
-2.79
-2.86
-2.78
-2.67
-2.66
-2.86
-3.27
-3.78
-4.31
-4.83
-5.39
-6.10
-6.99
-7.92
-8.67
-8.99
-8.73
-7.94
-6.79
-5.55
-4.40
-3.44
-2.64
-1.89
-1.14
-0.39
0.27
0.69
0.78
0.55
0.08
-0.43
-0.80
-0.88
-0.65
-0.18
0.39
0.92
1.29
1.46
1.48
1.44
1.46
1.55
1.69
1.81
1.86
1.83
1.74
1.62
1.45
1.20
0.79
0.21
-0.53
-1.31
-2.03
-2.58
-2.94
-3.18
-3.45
-3.90
-4.61
-5.56
-6.61
-7.56
-8.21
-8.45
-8.25
-7.67
-6.77
-5.68
-4.45
-3.19
-1.95
-0.80
0.22
1.06
1.76
2.34
2.86
3.32
3.70
3.89
3.81
3.41
2.78
2.11
1.61
1.50
1.82
2.51
3.39
4.24
4.87
5.12
4.94
4.38
3.55
2.66
1.91
1.46
1.32
1.45
1.67
1.84
1.82
1.54
1.00
0.20
-0.79
-1.83
-2.81
-3.59
-4.13
-4.48
-4.82
-5.34
-6.15
-7.22
-8.35
-9.26
-9.66
-9.41
-8.52
-7.14
-5.51
-3.81
-2.20
-0.73
0.60
1.78
2.78
3.52
3.88
3.83
3.42
2.81
2.24
1.90
1.85
2.05
2.35
2.67
2.99
3.38
3.95
4.73
5.60
6.35
6.75
6.67
6.14
5.32
4.43
3.66
3.12
2.77
2.53
2.24
1.78
1.07
0.13
-0.93
-1.97
-2.89
-3.66
-4.37
-5.09
-5.91
-6.78
-7.63
-8.30
-8.69
-8.71
-8.36
-7.62
-6.47
-4.92
-3.04
-0.99
0.98
2.65
3.88
4.63
5.01
5.15
5.20
5.21
5.20
5.17
5.10
5.01
4.95
4.97
5.15
5.49
5.98
6.48
6.87
7.02
6.87
6.49
5.97
5.48
5.09
4.83
4.66
4.44
4.04
3.36
2.38
1.18
-0.05
-1.16
-2.03
-2.67
-3.20
-3.75
-4.43
-5.25
-6.13
-6.96
-7.65
-8.16
-8.48
-8.59
-8.42
-7.87
-6.85
-5.37
-3.55
-1.67
-0.03
1.17
1.84
2.11
2.18
2.26
2.40
2.55
2.58
2.42
2.11
1.77
1.61
1.75
2.22
2.94
3.71
4.35
4.72
4.79
4.59
4.22
3.75
3.23
2.71
2.19
1.73
1.34
1.04
0.81
0.55
0.15
-0.51
-1.48
-2.74
-4.19
-5.64
-6.88
-7.69
-7.94
-7.59
-6.68
-5.31
-3.65
-1.80
0.13
2.04
3.81
5.27
6.28
6.74
6.67
6.21
5.58
5.01
4.65
4.54
4.65
4.88
5.15
5.41
5.62
5.75
5.78
5.71
5.57
5.42
5.28
5.12
4.90
4.51
3.92
3.12
2.13
1.01
-0.22
-1.53
-2.88
-4.19
-5.39
-6.47
-7.43
-8.31
-9.11
-9.75
-10.09
-9.95
-9.17
-7.77
-5.86
-3.71
-1.60
0.26
1.80
3.02
4.01
4.80
5.36
5.63
5.59
5.31
4.93
4.64
4.57
4.73
5.04
5.39
5.71
5.97
6.21
6.46
6.69
6.83
6.75
6.41
5.80
5.00
4.14
3.31
2.56
1.87
1.16
0.37
-0.57
-1.62
-2.75
-3.89
-5.04
-6.21
-7.40
-8.55
-9.51
-10.05
-9.92
-9.02
-7.40
-5.31
-3.08
-1.02
0.71
2.11
3.26
4.21
4.98
5.50
5.76
5.77
5.66
5.54
5.47
5.47
5.52
5.62
5.82
6.14
6.56
6.98
7.24
7.28
7.12
6.89
6.70
6.55
6.32
5.85
5.05
3.96
2.78
1.71
0.87
0.17
-0.56
-1.48
-2.64
-3.95
-5.23
-6.34
-7.30
-8.22
-9.21
-10.25
-11.12
-11.49
-11.07
-9.77
-7.78
-5.50
-3.33
-1.50
-0.06
1.15
2.23
3.21
3.99
4.43
4.48
4.20
3.79
3.49
3.47
3.76
4.29
4.89
5.42
5.80
6.03
6.14
6.20
6.21
6.15
5.97
5.63
5.13
4.47
3.67
2.77
1.79
0.77
-0.21
-1.07
-1.75
-2.23
-2.59
-2.97
-3.56
-4.48
-5.81
-7.43
-9.10
-10.47
-11.20
-11.05
-9.99
-8.20
-5.94
-3.51
-1.15
0.96
2.72
4.03
4.90
5.38
5.61
5.74
5.90
6.09
6.23
6.20
5.98
5.64
5.38
5.32
5.51
5.86
6.23
6.52
6.71
6.86
6.96
6.97
6.81
6.40
5.79
5.08
4.40
3.80
3.21
2.48
1.52
0.32
-0.97
-2.19
-3.17
-3.89
-4.40
-4.85
-5.38
-6.13
-7.13
-8.35
-9.67
-10.96
-12.09
-12.94
-13.41
-13.37
-12.70
-11.34
-9.32
-6.82
-4.14
-1.60
0.54
2.15
3.27
3.99
4.44
4.75
4.98
5.14
5.23
5.25
5.19
5.10
5.05
5.11
5.33
5.76
6.32
6.90
7.34
7.51
7.37
7.01
6.58
6.24
6.03
5.87
5.57
4.97
4.04
2.88
1.66
0.52
-0.51
-1.46
-2.37
-3.21
-3.88
-4.29
-4.48
-4.66
-5.12
-6.08
-7.61
-9.48
-11.29
-12.61
-13.12
-12.72
-11.53
-9.80
-7.82
-5.77
-3.76
-1.83
-0.05
1.47
2.60
3.26
3.48
3.43
3.29
3.22
3.26
3.38
3.50
3.55
3.54
3.56
3.72
4.07
4.63
5.31
5.96
6.40
6.50
6.23
5.63
4.85
4.07
3.41
2.93
2.60
2.30
1.89
1.29
0.46
-0.56
-1.67
-2.77
-3.76
-4.61
-5.35
-6.04
-6.79
-7.64
-8.61
-9.63
-10.59
-11.32
-11.65
-11.41
-10.50
-8.92
-6.78
-4.31
-1.77
0.56
2.48
3.87
4.75
5.21
5.35
5.27
5.02
4.66
4.25
3.92
3.76
3.81
4.02
4.31
4.57
4.77
4.93
5.12
5.36
5.61
5.80
5.81
5.59
5.14
4.50
3.79
3.14
2.63
2.31
2.07
1.79
1.26
0.42
-0.67
-1.85
-2.92
-3.79
-4.50
-5.20
-6.03
-7.04
-8.17
-9.32
-10.40
-11.37
-12.18
-12.72
-12.85
-12.41
-11.30
-9.58
-7.40
-5.04
-2.75
-0.72
0.97
2.31
3.33
4.06
4.51
4.69
4.61
4.34
3.96
3.62
3.45
3.59
4.06
4.81
5.72
6.61
7.36
7.88
8.15
8.17
7.94
7.48
6.86
6.15
5.47
4.88
4.42
4.03
3.65
3.20
2.69
2.11
1.48
0.73
-0.14
-1.18
-2.30
-3.39
-4.35
-5.10
-5.71
-6.31
-7.04
-7.99
-9.17
-10.45
-11.61
-12.42
-12.68
-12.28
-11.22
-9.62
-7.64
-5.44
-3.15
-0.89
1.19
2.94
4.18
4.81
4.88
4.52
4.02
3.62
3.49
3.66
4.07
4.56
5.04
5.43
5.74
6.01
6.25
6.48
6.66
6.72
6.60
6.29
5.83
5.28
4.69
4.06
3.38
2.64
1.83
1.01
0.20
-0.62
-1.48
-2.43
-3.45
-4.45
-5.31
-5.96
-6.43
-6.85
-7.41
-8.23
-9.31
-10.46
-11.35
-11.68
-11.26
-10.09
-8.37
-6.35
-4.27
-2.28
-0.45
1.18
2.59
3.73
4.57
5.12
5.38
5.40
5.22
4.88
4.44
4.01
3.70
3.63
3.83
4.29
4.91
5.60
6.22
6.67
6.89
6.83
6.51
5.98
5.31
4.61
3.94
3.35
2.80
2.24
1.56
0.73
-0.22
-1.24
-2.23
-3.14
-3.95
-4.72
-5.49
-6.33
-7.28
-8.36
-9.54
-10.71
-11.68
-12.20
-12.07
-11.18
-9.60
-7.52
-5.20
-2.88
-0.74
1.12
2.65
3.80
4.55
4.88
4.88
4.68
4.41
4.22
4.15
4.22
4.37
4.60
4.88
5.22
5.58
5.92
6.17
6.28
6.28
6.20
6.09
5.99
5.86
5.66
5.35
4.88
4.24
3.42
2.43
1.32
0.18
-0.85
-1.68
-2.27
-2.68
-3.02
-3.41
-3.93
-4.60
-5.44
-6.49
-7.76
-9.19
-10.60
-11.69
-12.18
-11.87
-10.77
-9.07
-7.09
-5.11
-3.32
-1.79
-0.45
0.79
1.97
3.08
4.04
4.72
5.07
5.07
4.82
4.47
4.16
4.01
3.99
4.07
4.19
4.36
4.63
5.04
5.59
6.16
6.62
6.85
6.81
6.52
6.04
5.41
4.68
3.86
2.96
2.00
1.00
-0.04
-1.08
-2.11
-3.10
-4.01
-4.80
-5.49
-6.13
-6.82
-7.64
-8.64
-9.78
-10.94
-11.89
-12.42
-12.33
-11.56
-10.15
-8.26
-6.09
-3.82
-1.61
0.39
2.07
3.35
4.16
4.52
4.48
4.17
3.75
3.35
3.10
3.05
3.16
3.36
3.59
3.80
4.01
4.25
4.53
4.84
5.10
5.24
5.20
4.98
4.60
4.09
3.49
2.82
2.12
1.43
0.78
0.16
-0.47
-1.16
-1.96
-2.92
-4.04
-5.28
-6.59
-7.89
-9.09
-10.07
-10.67
-10.75
-10.21
-9.01
-7.23
-5.08
-2.81
-0.67
1.15
2.57
3.64
4.44
5.04
5.48
5.71
5.70
5.43
4.98
4.50
4.12
3.98
4.10
4.41
4.84
5.30
5.74
6.10
6.33
6.36
6.11
5.57
4.84
4.05
3.34
2.75
2.24
1.70
1.07
0.35
-0.39
-1.12
-1.83
-2.59
-3.48
-4.53
-5.67
-6.81
-7.84
-8.77
-9.64
-10.47
-11.20
-11.65
-11.58
-10.81
-9.36
-7.38
-5.16
-2.94
-0.87
1.01
2.67
4.07
5.12
5.74
5.92
5.79
5.58
5.49
5.63
5.95
6.32
6.57
6.63
6.50
6.31
6.23
6.39
6.83
7.46
8.12
8.59
8.73
8.50
7.93
7.14
6.23
5.23
4.16
3.03
1.84
0.68
-0.39
-1.33
-2.14
-2.90
-3.67
-4.50
-5.37
-6.24
-7.05
-7.83
-8.69
-9.73
-11.03
-12.51
-13.92
-14.88
-15.04
-14.16
-12.28
-9.71
-6.89
-4.29
