1579813055.00
64.000000
-0.00
-0.00
-0.00
-0.00
-0.00
-0.00
-0.00
-0.00
-0.00
-0.00
0.00
0.01
0.01
-0.00
-0.03
-0.05
-0.05
0.00
0.13
0.36
0.66
1.01
1.37
1.72
2.06
2.40
2.79
3.24
3.80
4.42
5.06
5.66
6.20
6.68
7.15
7.68
8.31
9.14
10.09
11.04
11.88
12.56
13.14
13.76
14.65
15.96
17.91
20.32
22.90
25.38
27.58
29.57
31.68
34.32
37.81
42.54
48.15
54.10
59.83
64.97
69.58
74.14
79.34
85.71
93.76
103.00
112.62
121.73
129.77
136.75
143.30
150.75
157.77
166.64
177.95
191.79
206.97
220.57
228.25
225.36
208.53
176.87
132.76
80.05
23.07
-34.94
-92.44
-149.16
-205.23
-260.37
-313.74
-363.87
-409.83
-450.91
-486.50
-515.74
-537.23
-549.22
-549.96
-538.37
-514.21
-478.67
-433.88
-382.45
-327.02
-269.84
-212.63
-156.66
-102.95
-52.37
-5.90
35.58
71.43
101.35
125.50
144.38
158.69
169.15
176.37
180.75
182.57
182.07
179.51
175.23
169.65
163.18
156.15
148.81
141.30
133.69
126.02
118.33
110.69
103.16
95.80
88.68
81.83
75.25
68.95
62.95
57.25
51.86
46.78
42.03
37.59
33.45
29.61
26.07
22.81
19.83
17.11
14.67
12.48
10.54
8.83
7.35
6.07
4.97
4.05
3.27
2.62
2.09
1.65
1.30
1.01
0.79
0.61
0.47
0.37
0.29
0.23
0.19
0.16
0.15
0.15
0.16
0.17
0.19
0.22
0.26
0.29
0.33
0.38
0.42
0.47
0.51
0.56
0.61
0.67
0.73
0.79
0.85
0.93
1.01
1.10
1.20
1.31
1.43
1.57
1.73
1.90
2.09
2.31
2.55
2.81
3.10
3.43
3.78
4.16
4.58
5.04
5.52
6.05
6.62
7.23
7.89
8.58
9.32
10.10
10.93
11.82
12.76
13.75
14.80
15.87
16.95
18.05
19.15
20.28
21.40
22.47
23.40
24.03
24.20
23.75
22.60
20.68
18.03
14.74
10.88
6.62
2.09
-2.58
-7.22
-11.65
-15.65
-18.99
-21.49
-23.08
-23.83
-23.96
-23.76
-23.50
-23.32
-23.17
-22.90
-22.26
-21.15
-19.69
-18.19
-17.11
-16.79
-17.29
-18.37
-19.49
-20.11
-19.88
-18.93
-17.77
-17.14
-17.60
-19.30
-21.84
-24.44
-26.33
-27.03
-26.63
-25.72
-25.10
-25.53
-27.64
-31.82
-38.00
-45.29
-51.63
-54.17
-50.09
-37.95
-18.65
4.48
26.81
44.14
54.19
57.19
55.13
50.50
45.17
40.04
35.29
31.14
28.07
26.66
27.16
29.43
32.40
34.71
35.27
33.76
30.62
26.76
23.09
20.10
17.75
15.49
12.70
8.99
4.40
-0.59
-5.32
-9.16
-11.80
-13.40
-14.52
-15.88
-18.11
-21.52
-25.99
-30.96
-35.47
-38.40
-38.71
-35.81
-29.80
-21.55
-12.37
-3.60
3.89
9.84
14.50
18.27
21.32
23.54
24.64
24.51
23.28
21.39
19.37
17.68
16.57
16.11
16.27
16.96
17.99
19.11
19.98
20.28
19.77
18.34
16.00
12.86
9.02
4.60
-0.35
-5.80
-11.67
-17.75
-23.76
-29.33
-34.19
-38.27
-41.69
-44.77
-47.89
-51.33
-55.14
-59.12
-62.70
-65.05
-65.15
-62.03
-55.10
-44.35
-30.49
-14.81
1.12
15.81
28.17
37.57
43.84
47.07
47.53
45.52
41.47
35.93
29.70
23.65
18.63
15.25
13.69
13.72
14.81
16.32
17.72
18.67
19.09
18.94
18.18
16.68
14.32
11.08
7.09
2.64
-1.89
-6.13
-9.86
-12.97
-15.48
-17.50
-19.16
-20.69
-22.37
-24.52
-27.43
-31.17
-35.44
-39.51
-42.33
-42.76
-39.97
-33.64
-24.10
-12.24
0.78
13.74
25.64
35.67
43.29
48.15
50.11
49.27
45.98
40.86
34.71
28.37
22.65
18.18
15.34
14.18
14.44
15.57
16.91
17.88
18.09
17.44
16.07
14.21
11.97
9.35
6.26
2.63
-1.41
-5.57
-9.44
-12.72
-15.30
-17.40
-19.40
-21.72
-24.69
-28.46
-33.00
-37.99
-42.86
-46.71
-48.51
-47.24
-42.26
-33.58
-21.89
-8.48
5.10
17.50
27.66
35.02
39.36
40.68
39.26
35.58
30.42
24.64
19.13
14.50
11.10
8.94
7.86
7.62
8.00
8.79
9.76
10.63
11.07
10.74
9.41
7.02
3.68
-0.27
-4.48
-8.60
-12.46
-16.08
-19.65
-23.41
-27.59
-32.29
-37.39
-42.46
-46.68
-48.98
-48.26
-43.81
-35.59
-24.32
-11.27
2.12
14.63
25.43
34.06
40.18
43.52
43.91
41.44
36.73
30.83
25.01
20.36
17.41
16.03
15.64
15.56
15.35
14.93
14.49
14.23
14.14
13.91
13.10
11.37
8.62
5.15
1.37
-2.28
-5.57
-8.55
-11.52
-14.87
-19.04
-24.36
-30.98
-38.82
-47.35
-55.55
-62.04
-65.37
-64.48
-59.08
-49.73
-37.63
-24.27
-10.99
1.19
11.53
19.49
24.61
26.60
25.54
21.92
16.67
10.86
5.45
0.99
-2.43
-5.03
-7.09
-8.74
-9.91
-10.38
-10.11
-9.37
-8.80
-9.20
-11.26
-15.25
-20.98
-27.81
-34.99
-41.78
-47.78
-52.95
-57.63
-62.41
-67.95
-74.70
-82.60
-90.88
-98.10
-102.41
-102.03
-95.77
-83.32
-65.39
-43.36
-19.01
5.88
29.79
51.49
70.06
84.85
95.51
102.00
104.58
103.85
100.68
96.14
91.24
86.88
83.63
81.98
82.29
84.61
88.59
93.59
98.62
102.56
104.35
103.25
99.28
93.03
85.39
77.42
70.33
65.55
64.55
68.38
77.10
90.36
107.32
126.78
147.26
167.10
183.67
192.97
190.28
171.31
136.08
88.61
35.37
-17.11
-63.93
-103.56
-138.29
-173.31
-216.32
-271.44
-339.37
-417.50
-498.97
-572.71
-626.57
-651.91
-647.11
-620.06
-579.08
-531.62
-482.89
-433.64
-380.50
-318.85
-246.30
-164.41
-80.59
2.50
85.05
167.88
236.86
272.96
265.44
220.81
177.99
145.11
123.34
114.78
110.53
109.14
112.24
121.99
138.72
159.70
177.15
188.42
193.93
195.22
195.74
199.42
209.46
226.84
249.54
271.02
288.12
299.53
304.48
303.95
299.69
293.79
287.43
279.75
266.32
244.12
211.23
167.14
114.48
58.50
6.15
-35.93
-63.47
-76.31
-75.98
-65.17
-46.61
-21.52
10.49
51.07
101.90
163.10
231.89
302.85
368.48
420.89
454.17
466.14
458.89
437.66
408.63
376.53
343.39
308.79
271.19
229.41
183.23
132.99
78.81
20.22
-43.97
-115.08
-193.26
-277.43
-365.91
-457.04
-549.23
-640.60
-728.34
-808.81
-878.33
-933.42
-971.45
-991.13
-992.33
-975.88
-943.44
-897.19
-840.51
-778.03
-713.48
-648.80
-584.14
-518.32
-449.80
-377.78
-301.58
-222.61
-145.31
-72.91
-6.70
53.21
107.78
158.61
207.31
257.44
310.04
360.67
406.99
449.25
488.16
524.85
560.94
598.55
644.45
702.70
768.31
836.89
903.38
958.58
991.73
994.43
963.82
908.94
840.11
758.59
668.12
573.24
474.89
372.79
267.36
126.37
-54.83
-222.16
-363.47
-489.96
-601.19
-691.57
-752.76
-777.58
-763.94
-711.20
-627.59
-533.12
-440.75
-354.51
-275.27
-202.88
-138.04
-82.34
-32.49
14.79
57.80
99.11
142.22
185.48
223.03
248.05
256.83
253.43
244.42
232.46
220.26
209.22
197.93
184.62
168.89
151.73
135.48
120.67
104.36
84.64
61.91
38.06
15.92
-2.01
-14.65
-22.36
-27.15
-32.18
-39.64
-50.28
-63.95
-79.73
-96.07
-111.10
-123.09
-131.06
-135.18
-137.00
-138.95
-143.44
-151.53
-161.80
-171.04
-175.58
-173.09
-163.27
-147.69
-128.83
-109.13
-90.50
-73.32
-57.72
-44.08
-33.24
-25.77
-21.48
-19.58
-19.27
-20.17
-20.84
-19.82
-16.22
-10.37
-3.27
4.13
11.42
18.95
27.85
41.59
63.32
94.17
132.15
173.47
214.27
251.42
282.53
294.66
278.50
234.16
173.25
111.34
60.02
24.07
2.71
-7.90
-12.57
-13.74
-12.45
-9.22
-5.40
-2.01
0.26
1.63
2.50
2.49
1.70
-0.05
-3.00
-7.80
-13.91
-19.76
-24.37
-27.35
-30.67
-37.62
-52.94
-76.46
-108.64
-147.63
-188.40
-224.47
-247.41
-251.34
-235.61
-206.13
-173.99
-152.11
-149.59
-168.10
-203.00
-242.03
-271.78
-282.43
-271.21
-242.88
-208.62
-182.02
-164.08
-161.23
-174.75
-198.55
-222.66
-240.66
-252.36
-261.83
-272.34
-282.64
-294.32
-296.63
-280.89
-244.81
-193.04
-134.07
-76.39
-24.74
21.47
66.35
112.40
159.96
206.71
248.27
280.85
303.29
318.10
330.36
344.37
363.76
389.66
421.46
457.95
498.26
541.25
584.09
621.38
645.07
647.97
626.09
580.38
516.33
441.89
364.70
290.24
221.20
157.80
99.14
43.57
-11.43
-69.21
-133.04
-204.15
-279.51
-351.30
-409.18
-443.56
-449.41
-428.32
-387.73
-338.22
-289.14
-244.95
-204.12
-162.50
-116.30
-64.57
-9.85
42.82
87.14
118.06
134.23
139.11
136.71
129.96
119.59
104.73
83.49
53.25
12.84
-34.28
-78.07
-108.32
-117.17
-102.02
-66.63
-21.13
18.84
36.98
23.79
-18.93
-83.99
-160.90
-238.89
-308.53
-352.36
-354.43
-314.09
-261.62
-209.28
-158.71
-104.02
-43.78
21.54
90.82
161.43
229.27
292.57
341.17
359.57
337.61
279.14
199.43
115.68
43.50
-21.38
-82.64
-138.79
-186.44
-221.92
-240.21
-240.65
-227.26
-207.73
-190.73
-179.71
-172.52
-164.66
-151.58
-131.08
-104.71
-76.58
-51.66
-34.24
-24.72
-20.83
-19.38
-17.18
-11.96
-3.03
9.11
23.04
36.38
47.27
53.93
55.20
51.57
45.70
41.91
45.03
58.57
82.86
115.05
149.48
179.95
202.03
214.28
217.97
215.77
210.18
202.42
192.60
180.41
166.03
150.65
136.05
123.73
114.26
107.14
101.32
96.03
91.23
87.56
85.80
86.23
88.40
91.38
94.31
96.83
99.15
101.83
105.35
109.79
114.75
119.27
121.87
120.77
114.20
101.36
83.14
62.24
42.50
27.73
20.55
21.58
29.48
41.45
54.55
66.53
76.06
82.52
85.61
85.07
80.80
73.12
62.79
51.73
42.80
38.72
40.86
48.49
59.09
69.28
76.08
76.58
69.90
56.79
38.35
14.88
-14.13
-49.17
-89.79
-134.35
-182.75
-233.19
-282.42
-327.14
-365.63
-397.88
-424.66
-446.55
-463.76
-480.57
-499.49
-520.85
-543.74
-567.22
-589.82
-608.45
-618.43
-614.79
-599.51
-573.77
-536.86
-487.45
-425.95
-355.17
-279.82
-205.48
-106.62
17.35
147.04
256.91
333.40
377.85
399.00
405.98
405.85
403.36
394.85
377.44
351.59
319.21
281.35
238.20
189.87
138.03
93.08
59.63
43.03
47.74
73.43
112.51
152.06
178.50
183.62
167.58
134.68
94.75
58.59
33.48
18.52
11.67
9.60
9.99
12.41
15.79
20.34
26.69
34.73
43.35
50.84
55.26
55.60
52.09
44.73
33.86
19.40
0.49
-21.69
-45.62
-69.19
-89.50
-103.67
-110.37
-110.40
-106.52
-102.44
-101.11
-103.79
-109.84
-117.33
-124.07
-128.72
-130.98
-131.37
-130.70
-129.60
-128.52
-127.52
-126.21
-123.64
-118.49
-109.43
-95.52
-76.67
-53.55
-27.55
-0.33
26.53
51.69
74.04
92.59
106.67
116.23
122.16
126.30
130.93
137.99
148.31
161.42
175.81
189.86
202.53
213.83
224.61
235.98
248.56
262.09
275.39
286.46
292.93
292.56
283.90
266.90
242.95
214.33
183.58
152.85
123.49
96.07
70.86
48.14
28.53
12.66
0.14
-10.13
-19.54
-29.00
-38.65
-47.84
-55.43
-60.31
-61.92
-61.84
-62.45
-65.76
-72.29
-81.04
-90.11
-97.27
-100.65
-99.48
-96.35
-95.24
-99.43
-109.93
-125.34
-142.92
-159.45
-172.13
-179.52
-184.48
-191.58
-204.96
-226.49
-256.00
-292.12
-332.60
-374.49
-399.40
-393.03
-352.77
-290.26
-222.19
-160.45
-109.83
-70.32
-40.00
-16.74
-1.65
5.01
4.21
-0.89
-6.17
-8.44
-6.21
0.60
11.42
24.25
35.49
44.11
51.50
60.03
71.27
85.53
102.48
121.93
142.98
165.09
188.07
211.19
232.48
248.51
255.67
251.89
237.85
216.31
191.41
167.63
148.30
135.20
127.90
123.79
118.20
104.92
77.16
30.27
-35.66
-114.63
-194.96
-263.37
-309.76
-330.36
-327.87
-309.28
-281.40
-248.92
-214.17
-176.71
-136.83
-96.81
-60.16
-29.13
-3.49
21.57
52.78
95.58
153.91
226.03
302.94
370.23
412.77
418.78
387.04
325.98
250.82
182.10
136.69
121.76
133.69
161.99
193.36
220.41
240.67
234.89
192.83
116.99
21.33
-77.52
-156.97
-217.89
-261.98
-289.20
-299.17
-292.89
-271.52
-239.06
-201.29
-163.66
-131.58
-106.24
-87.95
-77.08
-71.12
-66.36
-59.59
-48.90
-33.92
-17.10
-0.11
14.72
25.12
31.39
35.44
39.06
43.01
46.85
48.62
47.48
42.95
34.97
24.85
14.22
4.07
-5.64
-15.45
-25.96
-36.21
-44.25
-47.96
-45.82
-37.98
-26.69
-15.45
-7.41
-3.99
-4.09
-5.02
-4.03
0.36
7.84
16.84
25.56
32.86
38.56
43.05
46.67
49.31
50.57
50.08
47.88
44.63
41.35
38.98
38.02
38.31
39.21
40.00
40.37
40.74
42.11
45.48
51.40
59.63
69.29
79.15
87.87
94.05
96.29
93.34
84.55
70.41
52.63
33.75
16.31
1.90
-9.23
-17.79
-24.69
-30.29
-34.15
-35.33
-33.09
-27.26
-18.49
-7.88
3.44
14.80
26.19
38.11
50.99
64.62
77.76
88.19
93.29
91.03
80.69
63.41
41.81
19.34
-0.76
-16.30
-26.56
-32.14
-34.36
-34.66
-34.07
-33.06
-31.70
-30.09
-28.53
-27.61
-28.06
-30.52
-35.49
-43.33
-54.24
-68.03
-83.73
-99.33
-111.99
-118.89
-118.30
-110.56
-98.25
-85.53
-76.80
-75.09
-81.12
-93.11
-107.61
-120.76
-129.54
-132.43
-129.45
-121.54
-109.90
-95.67
-80.03
-64.38
-50.36
-39.29
-31.31
-24.78
-16.49
-2.77
18.90
48.54
83.45
119.10
150.66
174.56
189.27
195.25
194.25
188.37
179.45
168.88
157.75
147.05
137.72
130.30
124.65
119.78
114.11
106.06
94.69
80.02
62.92
44.74
26.75
9.75
-5.90
-20.20
-33.19
-44.84
-55.06
-63.73
-70.76
-75.99
-79.20
-80.06
-78.29
-73.83
-66.93
-58.19
-48.36
-38.22
-28.31
-19.01
-10.57
-3.33
2.10
4.98
4.70
1.13
-5.20
-13.16
-21.18
-27.55
-30.78
-29.89
-24.74
-16.14
-5.76
4.35
12.34
17.08
18.37
16.77
13.19
8.57
3.51
-1.72
-7.09
-12.71
-18.80
-25.64
-33.58
-42.81
-53.21
-64.18
-74.74
-83.90
-90.94
-95.65
-98.08
-98.19
-95.52
-89.33
-79.19
-65.45
-49.58
-33.58
-19.05
-6.44
5.20
17.56
32.01
48.80
67.01
85.05
101.39
114.86
124.51
129.45
129.01
123.31
113.71
102.88
94.05
90.06
92.27
100.07
111.21
122.60
131.46
136.32
137.47
136.67
136.28
138.04
142.19
147.43
151.33
151.40
146.04
135.03
119.45
101.25
82.74
65.97
52.43
42.67
36.42
33.03
32.00
33.43
38.06
46.66
59.36
75.15
91.94
107.19
118.66
124.91
125.54
121.26
113.95
106.49
101.91
102.53
108.87
118.96
128.72
133.48
129.85
117.02
96.72
71.74
44.50
16.21
-13.05
-43.61
-75.30
-107.10
-137.53
-165.56
-191.71
-217.33
-243.59
-270.83
-298.48
-325.81
-352.74
-380.10
-409.00
-440.95
-474.38
-503.69
-520.90
-519.24
-496.22
-454.39
-399.67
-338.83
-280.65
-230.93
-191.14
-159.73
-134.96
-116.25
-103.28
-94.41
-86.30
-80.32
-77.93
-79.24
-83.24
-90.07
-101.60
-119.55
-143.77
-172.64
-211.49
-265.82
-336.96
-420.01
-505.86
-583.97
-644.32
-679.75
-644.08
-519.12
-325.85
-113.96
71.12
209.55
303.94
366.71
410.20
441.29
460.70
467.52
464.67
459.20
457.43
461.18
468.22
474.33
472.00
451.54
408.06
344.96
272.69
203.05
143.95
98.05
64.38
41.17
25.41
17.06
19.82
38.28
73.22
119.13
166.34
205.48
231.04
241.05
237.22
223.01
201.14
172.35
136.26
94.69
53.21
19.72
-0.22
-6.25
-4.33
-5.37
-20.82
-57.89
-114.61
-180.43
-240.60
-283.00
-301.75
-298.10
-278.20
-249.32
-217.13
-183.01
-145.98
-101.09
-50.28
-0.52
39.22
61.70
67.69
62.74
56.77
59.55
79.08
117.76
171.93
232.86
289.13
330.41
343.11
322.04
274.64
218.31
169.06
133.58
109.37
90.40
72.65
55.73
43.23
38.63
42.53
51.56
60.72
66.20
66.49
62.16
54.66
46.13
37.69
28.19
16.30
-0.36
-22.90
-50.11
-78.62
-104.06
-121.98
-129.77
-127.78
-118.98
-107.29
-95.05
-82.07
-66.01
-44.18
-15.11
19.97
57.07
90.76
115.94
130.05
133.71
130.31
124.53
120.74
121.70
127.83
137.53
147.91
155.93
159.09
155.84
145.65
128.86
106.68
80.86
53.43
26.25
0.74
-22.15
-41.98
-58.65
-72.31
-83.12
-91.19
-96.65
-99.91
-101.89
-104.21
-108.99
-118.15
-132.49
-151.11
-171.42
-189.99
-203.77
-211.02
-211.63
-206.58
-197.40
-185.82
-173.76
-163.35
-156.49
-153.91
-154.31
-154.16
-148.69
-133.67
-107.27
-70.97
-28.94
13.59
52.39
85.37
112.62
135.29
154.18
169.08
178.98
183.03
181.36
175.19
166.11
154.99
141.24
122.90
97.41
62.77
18.44
-33.85
-90.04
-144.15
-189.35
-219.64
-231.53
-225.18
-204.57
-176.37
-148.20
-126.67
-116.00
-117.34
-129.01
-147.18
-166.80
-182.81
-191.16
-189.73
-178.69
-160.16
-137.44
-114.03
-92.62
-74.28
-57.96
-40.57
-18.05
12.90
52.97
99.24
145.72
185.46
213.10
226.68
227.77
220.17
207.71
192.85
176.33
158.17
138.75
119.54
102.70
90.11
82.47
78.96
77.71
76.83
75.33
73.55
72.72
74.06
77.94
83.43
88.76
92.29
93.33
92.57
91.52
91.44
92.35
92.68
89.86
81.49
66.50
45.89
22.30
-0.79
-20.40
-34.94
-44.58
-50.78
-55.44
-60.05
-65.13
-70.33
-74.78
-77.58
-78.17
-76.37
-72.33
-66.41
-59.20
-51.46
-44.17
-38.24
-34.25
-32.16
-31.30
-30.66
-29.35
-27.09
-24.36
-22.05
-21.02
-21.55
-23.45
-26.51
-31.04
-38.11
-48.97
-64.12
-82.44
-101.10
-116.65
-126.53
-130.42
-130.40
-129.99
-132.50
-139.69
-151.35
-166.04
-182.13
-198.72
-215.76
-233.56
-251.94
-269.56
-283.92
-291.95
-290.82
-278.83
-255.77
-222.95
-182.90
-138.84
-94.20
-52.05
-14.70
16.60
41.60
60.91
75.68
87.25
96.92
105.72
114.49
123.81
134.20
146.06
159.53
174.18
188.64
200.66
207.55
207.19
199.18
185.56
170.65
159.69
157.14
164.95
181.91
204.34
227.45
246.97
259.97
264.90
261.29
249.34
229.89
204.53
175.61
145.66
116.67
89.54
64.42
41.40
21.20
4.83
-7.90
-19.62
-35.35
-60.70
-98.94
-148.89
-204.80
-258.54
-302.53
-332.10
-346.08
-346.09
-335.20
-317.06
-295.52
-274.50
-257.66
-247.71
-245.81
-251.40
-262.56
-276.59
-290.67
-302.34
-310.05
-313.67
-314.57
-315.08
-317.34
-322.14
-328.25
-332.92
-333.10
-326.85
-314.09
-296.42
-276.12
-254.89
-233.06
-209.63
-183.01
-151.99
-116.43
-77.24
-35.77
6.91
50.60
95.76
142.93
192.05
242.11
291.23
337.09
377.08
408.28
427.51
432.17
421.74
399.35
371.85
347.95
334.52
333.06
338.10
338.75
322.87
281.45
211.64
117.31
7.44
-106.49
-213.27
-303.60
-371.75
-416.18
-439.08
-444.92
-438.49
-423.48
-401.93
-375.05
-343.86
-309.71
-274.07
-237.63
-199.82
-159.08
-114.02
-64.33
-11.33
43.23
97.27
149.21
198.14
243.93
286.69
325.66
359.40
385.72
404.63
417.32
425.71
431.49
435.74
439.03
440.85
441.49
440.71
441.70
446.80
455.37
463.16
464.48
455.27
433.54
402.77
368.08
340.84
330.17
338.00
356.64
371.93
370.40
342.94
293.97
236.40
195.28
193.13
240.52
332.24
451.96
581.74
705.26
817.11
863.20
804.80
636.53
395.49
137.46
-94.45
-260.95
-375.74
-452.76
-502.59
-525.31
-520.72
-495.49
-459.70
-424.95
-398.72
-385.64
-381.27
-380.69
-375.06
-358.77
-332.08
-301.04
-274.35
-258.41
-257.94
-270.72
-293.67
-320.06
-343.73
-360.34
-367.82
-365.65
-353.33
-332.00
-301.58
-264.02
-220.95
-174.49
-127.15
-81.90
-41.97
-10.27
10.27
18.97
16.73
7.15
-4.90
-15.11
-21.51
-25.05
-28.81
-36.36
-49.49
-67.82
-88.74
-109.46
-127.87
-142.19
-149.66
-146.14
-127.60
-92.77
-45.35
7.18
54.13
85.85
97.62
91.94
76.65
60.55
49.25
43.79
43.96
47.85
53.80
61.35
72.35
89.73
115.37
149.28
190.27
239.49
296.31
357.06
413.63
455.67
473.28
458.80
409.04
310.82
171.21
14.77
-129.25
-243.97
-326.72
-380.96
-409.16
-411.65
-389.64
-346.11
-295.13
-246.87
-210.61
-190.37
-183.74
-185.13
-190.23
-198.41
-210.36
-229.18
-257.70
-296.22
-340.96
-383.88
-415.44
-427.83
-417.22
-383.73
-332.60
-271.87
-210.15
-152.38
-98.47
-45.22
10.50
69.87
132.54
196.87
261.33
324.17
383.41
436.40
479.44
508.87
522.53
521.10
507.64
486.49
461.36
434.72
407.73
380.56
352.88
324.17
293.89
261.68
227.74
192.83
158.47
126.67
99.32
77.59
61.48
49.72
40.35
31.47
21.85
11.29
0.40
-10.00
-19.37
-27.69
-35.37
-42.83
-50.16
-57.05
-62.83
-66.84
-68.74
-68.75
-67.53
-65.90
-64.48
-63.53
-62.88
-62.16
-61.07
-59.69
-58.53
-58.19
-58.99
-60.68
-62.53
-63.70
-63.58
-62.09
-59.89
-58.13
-57.76
-58.96
-61.14
-63.41
-65.04
-65.77
-65.91
-66.14
-67.48
-70.07
-72.45
-72.11
-66.56
-54.54
-36.58
-15.16
6.25
23.22
32.83
34.90
31.26
24.30
15.96
8.00
2.11
0.05
1.11
2.37
-1.10
-15.91
-48.72
-103.89
-179.85
-264.85
-340.18
-393.35
-424.34
-441.56
-453.21
-461.36
-461.38
-445.46
-414.86
-368.02
-310.02
-250.02
-196.39
-153.55
-121.02
-95.06
-70.72
-43.79
-14.83
13.34
38.10
58.97
77.53
95.97
115.64
136.57
157.77
178.41
197.65
215.89
235.09
257.57
284.30
313.61
341.30
361.85
370.83
366.10
349.08
324.59
299.19
278.71
266.36
262.08
263.12
265.81
266.81
264.17
257.63
248.11
236.95
225.41
214.51
205.10
197.93
193.41
191.35
190.76
190.25
188.63
185.55
181.85
179.52
181.42
190.74
210.19
241.14
282.53
330.16
376.97
414.49
435.27
435.16
414.34
376.47
326.81
269.84
208.19
142.77
73.86
2.23
-70.40
-142.42
-213.16
-282.36
-349.37
-412.08
-467.27
-511.92
-544.78
-566.10
-576.59
-576.08
-562.83
-535.66
-496.68
-452.73
-413.94
-389.92
-385.06
-397.99
-424.37
-459.92
-503.32
-555.46
-615.85
-679.08
-734.48
-768.46
-771.09
-741.09
-684.89
-613.91
-539.53
-469.10
-404.65
-344.08
-282.23
-215.10
-142.22
-64.10
18.43
105.00
195.00
287.28
369.30
430.02
468.25
482.88
478.81
465.56
453.63
450.16
456.41
468.25
480.81
490.40
495.18
496.24
494.76
490.15
479.89
461.29
433.41
399.10
362.77
327.76
295.99
266.91
238.41
208.21
175.20
140.01
105.41
74.55
49.14
29.42
13.50
-2.51
-23.41
-53.16
-92.65
-137.75
-179.77
-208.11
-213.52
-192.13
-147.56
-90.14
-33.70
9.05
30.51
29.74
11.52
-16.40
-46.74
-75.23
-101.55
-128.66
-160.91
-202.22
-253.97
-313.91
-376.06
-432.04
-473.10
-492.68
-488.63
-463.99
-426.07
-383.87
-345.03
-313.65
-289.79
-270.96
-254.30
-238.49
-223.64
-210.31
-197.94
-184.25
-166.23
-141.84
-111.60
-78.79
-48.09
-22.96
-3.94
11.86
29.28
52.74
84.55
124.09
168.61
214.41
257.45
293.41
318.15
328.80
325.54
312.84
298.54
290.79
293.97
306.02
318.86
322.25
308.83
277.56
234.26
188.44
149.01
121.08
105.01
97.65
94.32
90.71
83.93
73.53
61.43
51.64
49.30
59.51
86.08
130.53
191.22
262.95
337.18
403.17
450.34
471.18
463.46
431.08
382.51
327.73
275.11
229.40
191.73
161.08
136.02
115.47
98.80
85.22
73.57
62.43
50.60
37.32
22.31
6.00
-10.72
-26.38
-39.29
-48.07
-52.29
-52.79
-51.46
-50.52
-51.70
-55.73
-62.23
-70.29
-78.92
-87.40
-95.24
-101.98
-107.01
-109.71
-109.72
-107.15
-102.63
-97.11
-91.71
-87.44
-84.92
-84.31
-85.16
-86.61
-87.64
-87.46
-85.85
-83.18
-80.18
-77.54
-75.58
-74.10
-72.66
-70.87
-68.69
-66.42
-64.54
-63.35
-62.80
-62.53
-62.07
-61.14
-59.79
-58.43
-57.58
-57.71
-58.97
-61.19
-63.97
-66.83
-69.41
-71.63
-73.74
-76.28
-79.84
-84.78
-90.98
-97.66
-103.62
-107.59
-108.71
-106.96
-103.25
-99.11
-96.20
-95.81
-98.33
-103.25
-109.34
-114.98
-118.71
-119.71
-118.17
-115.41
-113.74
-115.94
-124.31
-139.73
-160.93
-184.56
-205.98
-220.41
-224.08
-215.16
-194.16
-163.67
-127.71
-90.72
-56.76
-28.94
-9.22
1.64
4.27
0.92
-4.53
-7.23
-2.58
12.09
36.38
66.68
97.31
122.39
137.74
141.87
135.67
121.26
101.12
77.68
53.43
30.94
12.71
0.95
-2.86
1.74
13.92
31.62
51.72
70.75
85.55
94.03
95.95
93.27
89.80
89.23
93.80
103.43
116.03
128.41
137.19
140.57
139.13
136.31
135.37
138.34
145.14
153.69
160.20
158.73
143.76
112.29
66.74
11.63
-46.35
-99.77
-141.42
-166.55
-176.34
-175.91
-171.78
-166.52
-162.38
-159.12
-154.53
-144.67
-126.91
-104.80
-85.55
-76.72
-79.72
-95.14
-121.00
-153.78
-188.61
-205.43
-191.23
-146.48
-105.02
-79.26
-72.95
-80.15
-100.49
-134.06
-179.19
-233.32
-290.09
-339.78
-369.17
-372.51
-351.77
-315.18
-271.53
-227.26
-187.15
-152.76
-123.05
-93.18
-61.17
-26.76
9.27
47.28
88.21
131.70
177.03
223.67
272.66
322.77
370.79
411.95
442.22
459.35
462.99
455.02
438.67
418.04
395.40
371.46
346.15
319.77
293.04
266.27
239.14
210.84
180.95
149.50
117.31
85.71
56.07
29.46
6.69
-11.39
-24.22
-31.92
-36.06
-39.56
-45.60
-56.30
-71.91
-91.34
-113.36
-137.30
-162.70
-188.21
-210.77
-225.96
-229.75
-220.30
-198.81
-168.64
-133.43
-95.45
-55.33
-13.03
30.82
74.36
114.93
150.11
178.44
199.41
212.91
218.38
214.70
200.76
176.16
141.94
100.71
56.16
12.36
-27.01
-59.03
-81.77
-94.20
-96.36
-89.14
-74.09
-52.91
-27.10
1.68
30.63
54.86
67.49
61.30
31.69
-20.71
-89.44
-164.07
-233.44
-289.08
-326.84
-346.54
-350.09
-339.77
-317.37
-284.65
-244.21
-199.92
-156.71
-119.57
-92.20
-75.96
-69.05
-66.61
-61.66
-46.91
-17.34
27.68
83.45
140.99
189.71
221.17
231.96
224.71
206.50
185.44
167.27
153.67
142.82
131.68
118.52
104.10
90.94
81.59
77.08
76.44
77.40
77.62
75.57
70.96
64.25
56.02
46.53
35.78
23.84
11.11
-1.42
-12.59
-21.93
-30.39
-40.31
-54.29
-73.20
-94.27
-110.85
-114.34
-98.05
-60.66
-7.48
51.47
105.48
147.02
173.35
185.63
186.61
178.90
164.63
146.31
127.43
111.90
102.57
99.66
100.61
101.36
98.46
90.87
80.21
69.45
61.04
55.72
52.50
49.68
45.91
40.83
34.65
27.50
19.02
8.79
-2.81
-13.80
-20.80
-20.36
-10.74
6.92
28.75
49.70
65.63
74.77
77.86
77.15
75.11
73.74
74.57
79.16
89.22
105.96
129.02
155.79
181.79
202.26
213.98
216.29
210.87
200.29
186.39
169.42
148.22
120.99
86.20
43.22
-6.98
-60.83
-111.63
-150.22
-167.53
-158.35
-124.43
-74.96
-23.77
15.86
35.79
34.87
17.61
-9.41
-40.59
-72.62
-103.88
-133.10
-158.70
-178.99
-193.08
-201.18
-204.24
-203.07
-197.75
-187.77
-172.90
-154.01
-133.21
-113.22
-96.29
-83.52
-75.00
-70.38
-69.76
-73.93
-84.04
-100.87
-124.70
-155.48
-193.26
-238.04
-288.73
-342.03
-392.06
-431.54
-454.09
-456.63
-440.49
-410.74
-374.13
-336.69
-302.17
-271.72
-244.49
-218.68
-192.38
-164.02
-132.85
-98.99
-63.41
-27.49
7.65
41.90
76.32
112.58
151.96
194.06
236.17
273.84
302.37
318.41
320.89
310.97
291.48
266.31
239.84
216.34
199.22
189.75
186.34
184.57
178.94
165.38
143.33
116.19
90.09
71.67
65.69
73.74
93.42
119.82
147.62
173.28
196.35
219.14
245.19
276.50
311.58
343.74
364.24
366.23
347.76
312.40
267.34
220.61
178.83
146.52
124.23
111.98
110.64
121.33
142.76
169.11
190.65
197.06
181.58
139.92
74.17
-7.39
-93.42
-174.03
-244.31
-304.44
-357.44
-407.05
-461.16
-527.12
-608.27
-702.24
-801.75
-897.18
-978.42
-1036.73
-1036.53
-957.88
-808.13
-621.27
-437.85
-283.99
-166.08
-78.01
-10.50
41.26
77.99
97.64
101.15
94.82
87.92
88.17
99.39
121.70
150.60
178.22
197.87
207.78
211.82
216.71
228.31
249.54
280.25
318.02
357.28
391.54
415.71
427.09
425.03
410.20
384.51
351.32
315.14
279.96
248.73
223.67
206.21
196.86
194.99
198.88
205.91
212.74
214.87
207.11
185.07
146.96
95.26
36.83
-18.39
-60.28
-81.76
-81.51
-64.61
-40.65
-20.60
-12.79
-20.71
-42.31
-71.41
-100.37
-123.15
-137.26
-143.82
-145.89
-146.15
-146.63
-148.50
-153.92
-163.84
-177.61
-192.07
-199.42
-191.56
-162.85
-114.02
-53.08
7.44
55.50
83.84
91.80
84.32
65.89
42.62
19.96
1.26
-12.77
-22.86
-29.94
-34.71
-37.60
-40.27
-43.97
-50.36
-61.30
-78.49
-103.23
-136.25
-177.38
-225.21
-274.05
-316.20
-343.99
-352.19
-340.33
-313.08
-278.30
-244.00
-212.33
-186.11
-166.58
-153.63
-145.89
-140.99
-137.46
-133.96
-129.62
-123.68
-115.11
-103.10
-87.64
-67.51
-42.00
-11.69
21.83
56.69
90.53
123.23
155.46
187.65
223.29
265.20
313.65
365.99
417.69
462.35
497.41
522.09
536.87
547.91
561.81
582.37
609.34
639.43
666.10
686.99
700.59
677.45
600.36
470.98
311.29
151.39
29.14
-57.40
-116.84
-157.46
-185.65
-204.25
-213.17
-213.85
-210.52
-208.62
-214.62
-228.09
-245.83
-264.25
-277.42
-281.36
-276.05
-264.91
-252.54
-244.12
-239.54
-237.22
-235.93
-233.13
-226.40
-214.34
-196.67
-174.08
-149.20
-122.77
-95.75
-69.23
-43.79
-19.66
2.48
21.34
36.79
47.55
54.48
59.78
66.08
73.97
82.50
89.78
94.15
95.00
92.02
88.19
87.06
91.84
101.63
113.30
122.17
123.53
113.84
91.29
58.08
17.81
-24.69
-68.09
-111.85
-155.14
-195.80
-230.52
-256.01
-269.70
-271.35
-247.55
-194.24
-116.96
-29.18
55.06
127.27
185.04
229.90
261.92
284.94
298.58
302.22
296.65
284.20
267.49
247.70
227.47
207.30
187.36
165.29
139.59
110.40
79.32
48.43
19.22
-7.79
-33.40
-58.33
-84.49
-112.31
-140.13
-164.49
-181.46
-188.37
-184.82
-173.13
-156.99
-141.13
-128.83
-121.14
-117.00
-114.21
-110.60
-104.54
-95.17
-81.94
-64.88
-44.41
-21.47
2.42
25.50
46.15
63.40
76.89
86.68
92.85
95.34
94.19
89.96
83.84
77.36
71.69
66.89
61.79
54.63
44.15
30.53
15.59
2.11
-7.34
-11.08
-8.58
-0.27
12.58
27.75
41.64
49.57
46.83
30.52
1.15
-37.06
-77.57
-113.92
-141.98
-160.96
-172.76
-180.28
-185.53
-188.67
-188.32
-182.62
-170.73
-153.69
-134.25
-116.09
-102.02
-92.89
-87.75
-84.93
-83.45
-83.64
-86.76
-93.87
-105.15
-119.31
-133.81
-145.48
-151.20
-148.45
-136.08
-115.00
-88.45
-62.18
-42.10
-32.15
-32.87
-41.77
-54.89
-68.72
-81.27
-92.00
-102.50
-113.40
-123.34
-129.74
-130.62
-125.94
-117.31
-106.84
-95.97
-88.22
-84.91
-84.18
-81.92
-74.47
-60.54
-41.28
-19.15
3.11
17.74
19.42
8.04
-11.50
-32.81
-51.75
-67.66
-82.70
-100.82
-133.22
-187.27
-262.05
-348.37
-434.04
-509.35
-569.18
-612.01
-594.90
-497.99
-334.31
-144.58
30.05
167.07
262.24
321.04
353.24
368.71
369.17
356.99
337.64
318.35
302.78
287.91
265.90
231.71
185.20
126.44
61.11
-0.02
-44.35
-62.71
-52.72
-19.63
30.00
86.83
137.24
170.15
181.14
173.83
157.18
141.54
131.07
133.50
153.95
192.20
245.18
308.75
379.06
452.77
527.27
583.05
607.56
595.71
550.67
480.51
393.71
297.86
200.48
117.37
48.21
-4.44
-39.10
-56.90
-61.56
-57.83
-50.07
-42.66
-38.55
-41.21
-48.72
-58.07
-66.02
-69.96
-68.22
-60.21
-46.83
-30.46
-15.62
-3.89
4.05
8.40
10.05
10.29
10.31
10.60
10.59
7.92
1.38
-9.96
-26.37
-47.21
-70.97
-95.56
-118.95
-139.61
-157.10
-170.89
-180.72
-186.53
-188.44
-186.83
-182.41
-176.18
-169.17
-162.26
-155.70
-149.31
-142.85
-136.30
-129.96
-124.32
-119.70
-115.90
-112.16
-107.33
-100.31
-90.37
-77.33
-61.57
-43.83
-25.11
-6.49
10.93
26.28
38.98
48.78
55.83
60.39
62.77
63.24
62.04
59.53
56.19
52.61
49.35
46.67
44.46
42.31
39.76
36.50
32.52
28.12
23.62
19.22
14.88
10.39
5.54
0.25
-5.35
-11.03
-16.57
-21.85
-26.90
-31.72
-36.29
-40.49
-44.18
-47.26
-49.77
-51.90
-53.84
-55.65
-57.05
-57.48
-56.15
-52.35
-45.63
-35.96
-23.82
-10.00
4.50
18.61
31.38
42.07
50.23
55.74
58.84
60.04
60.07
59.70
59.57
59.95
60.80
61.78
62.42
62.40
61.65
60.36
58.80
57.12
55.23
52.91
49.88
46.05
41.53
36.55
31.33
26.01
20.69
15.54
10.77
6.63
3.14
0.01
-3.32
-7.44
-12.71
-18.88
-25.01
-29.65
-31.31
-28.89
-22.14
-11.72
0.93
14.13
26.34
36.48
44.07
48.97
51.25
51.01
48.41
43.89
38.15
32.23
27.16
23.70
22.00
21.66
21.83
21.69
20.67
18.58
15.65
12.19
8.47
4.58
0.48
-3.86
-8.45
-13.18
-17.92
-22.53
-26.92
-31.03
-34.79
-38.21
-41.37
-44.55
-48.12
-52.51
-57.94
-64.24
-70.71
-76.17
-79.15
-78.30
-72.75
-62.36
-47.84
-30.56
-12.25
5.33
20.77
33.07
41.81
46.95
48.87
48.16
45.56
41.91
38.00
34.54
32.08
30.93
31.13
32.44
34.45
36.63
38.46
39.60
39.87
39.30
37.97
35.97
33.24
29.61
24.90
19.04
12.19
4.73
-2.86
-10.10
-16.66
-22.38
-27.25
-31.40
-35.10
-38.74
-42.78
-47.59
-53.25
-59.32
-64.80
-68.30
-68.39
-64.05
-54.97
-41.74
-25.71
-8.66
7.60
21.60
32.41
39.68
43.54
44.45
43.01
39.91
35.90
31.70
28.01
25.35
23.96
23.77
24.43
25.41
26.24
26.54
26.20
25.27
23.87
22.08
19.85
17.09
13.73
9.83
5.58
1.20
-3.09
-7.19
-11.10
-14.80
-18.25
-21.41
-24.24
-26.94
-29.83
-33.34
-37.80
-43.22
-49.17
-54.72
-58.64
-59.60
-56.55
-48.95
-37.06
-21.89
-5.02
11.77
26.81
38.91
47.34
51.89
52.73
50.43
45.81
39.94
33.98
28.93
25.46
23.78
23.62
24.41
25.56
26.59
27.26
27.54
27.47
27.00
25.89
23.87
20.62
16.11
10.59
4.57
-1.39
-6.89
-11.81
-16.29
-20.56
-24.84
-29.29
-33.96
-38.89
-43.96
-48.80
-52.63
-54.35
-52.83
-47.26
-37.60
-24.58
-9.58
5.79
20.07
32.17
41.40
47.41
50.08
49.56
46.29
41.02
34.76
28.49
23.08
18.99
16.35
14.93
14.34
14.14
14.02
13.73
13.17
12.28
10.99
9.18
6.68
3.36
-0.85
-5.84
-11.32
-16.90
-22.17
-26.88
-30.94
-34.58
-38.22
-42.43
-47.67
-54.06
-61.23
-68.21
-73.65
-76.06
-74.21
-67.53
-56.23
-41.31
-24.29
-6.94
9.19
22.90
33.58
41.09
45.61
47.47
47.07
44.86
41.40
37.45
33.80
31.18
29.95
30.04
31.02
32.23
33.09
33.25
32.63
31.31
29.35
26.73
23.35
19.12
14.10
8.45
2.57
-3.21
-8.58
-13.40
-17.69
-21.63
-25.54
-29.82
-34.87
-40.99
-48.06
-55.49
-62.09
-66.33
-66.64
-61.95
-52.03
-37.64
-20.34
-2.09
15.14
29.84
41.04
48.37
51.90
52.08
49.60
45.27
39.95
34.41
29.33
25.13
22.08
20.25
19.54
19.63
20.05
20.31
20.07
19.23
17.96
16.53
15.03
13.27
10.82
7.23
2.34
-3.56
-9.82
-15.72
-20.76
-24.82
-28.15
-31.27
-34.70
-38.90
-44.19
-50.57
-57.67
-64.57
-69.88
-71.95
-69.38
-61.46
-48.55
-31.98
-13.67
4.34
20.38
33.42
42.97
48.99
51.68
51.37
48.63
44.23
39.14
34.37
30.65
28.30
27.09
26.41
25.55
24.04
21.81
19.08
16.26
13.60
11.01
8.15
4.61
0.18
-5.04
-10.60
-15.94
-20.58
-24.31
-27.27
-29.86
-32.66
-36.25
-41.06
-47.21
-54.32
-61.47
-67.28
-70.18
-68.80
-62.39
-51.06
-35.86
-18.56
-1.22
14.31
26.71
35.40
40.47
42.37
41.73
39.13
35.19
30.55
26.03
22.44
20.46
20.27
21.56
23.56
25.37
26.29
25.97
24.45
21.96
18.67
14.59
9.65
3.77
-2.92
-10.05
-17.10
-23.55
-29.01
-33.34
-36.71
-39.39
-41.82
-44.44
-47.68
-51.93
-57.32
-63.58
-69.85
-74.71
-76.44
-73.47
-64.94
-51.05
-33.10
-13.19
6.40
23.72
37.49
47.19
52.84
54.83
53.74
50.23
45.13
39.31
33.72
29.18
26.22
25.00
25.29
26.62
28.34
29.89
30.88
31.16
30.75
29.75
28.20
25.96
22.82
18.54
13.07
6.66
-0.19
-6.79
-12.55
-17.19
-20.75
-23.60
-26.36
-29.70
-34.16
-39.98
-46.89
-53.98
-59.79
-62.56
-60.82
-53.82
-41.84
-26.21
-8.87
8.14
23.17
35.15
43.55
48.23
49.32
47.21
42.55
36.36
29.87
24.25
20.34
18.41
18.20
19.15
20.62
22.13
23.34
24.07
24.15
23.41
21.67
18.82
14.83
9.80
4.00
-2.25
-8.53
-14.42
-19.61
-23.97
-27.63
-30.98
-34.59
-39.03
-44.59
-51.06
-57.51
-62.43
-64.08
-60.97
-52.48
-39.05
-22.12
-3.69
14.21
30.02
42.81
52.20
58.20
60.94
60.64
57.67
52.59
46.31
39.95
34.62
31.14
29.81
30.27
31.73
33.19
33.83
33.24
31.39
28.58
25.19
21.42
17.29
12.60
7.10
0.68
-6.51
-14.08
-21.48
-28.18
-33.84
-38.37
-41.98
-45.08
-48.23
-52.02
-56.99
-63.33
-70.66
-77.86
-83.11
-84.26
-79.52
-68.21
-51.08
-30.26
-8.53
11.47
27.96
40.23
48.40
52.92
54.22
52.62
48.48
42.49
35.69
29.25
24.15
20.85
19.25
18.78
18.69
18.34
17.21
15.14
12.20
8.75
5.31
2.42
0.45
-0.60
-1.04
-1.37
-2.02
-3.16
-4.66
-6.25
-7.71
-9.03
-10.46
-12.38
-15.19
-19.28
-24.97
-32.52
-41.88
-52.46
-62.88
-71.07
-74.74
-72.05
-62.34
-46.38
-26.18
-4.39
16.54
34.82
49.44
60.09
66.84
69.91
69.70
66.85
62.29
57.11
52.42
48.95
46.96
46.16
45.97
45.80
45.23
44.13
42.50
40.40
37.85
34.80
31.16
26.89
22.03
16.72
11.04
5.09
-0.83
-6.41
-11.39
-15.77
-19.82
-23.99
-28.69
-34.09
-40.06
-45.80
-50.53
-54.04
-56.91
-60.06
-64.03
-68.45
-71.91
-72.29
-66.59
-52.74
-30.63
-2.81
26.37
52.29
71.40
82.27
85.81
86.25
88.33
95.31
107.00
120.52
131.95
138.38
138.90
134.62
129.61
127.43
129.65
134.69
140.45
145.86
150.89
154.85
143.09
102.77
29.24
-67.58
-168.59
-254.89
-316.18
-353.43
-376.68
-398.79
-426.15
-459.37
-488.10
-500.62
-488.62
-450.58
-391.84
-321.69
-249.10
-177.75
-106.73
-31.86
45.55
121.25
189.38
244.81
285.43
312.88
332.80
350.90
370.27
388.92
402.08
404.52
393.22
368.69
334.44
295.89
257.85
223.40
192.91
165.55
140.11
115.76
92.47
70.78
51.68
35.90
23.55
13.74
5.29
-2.97
-11.78
-21.26
-30.97
-40.23
-48.51
-55.56
-61.63
-67.04
-72.05
-76.74
-81.01
-84.69
-87.73
-90.29
-92.69
-95.24
-97.97
-100.60
-102.46
-102.71
-100.56
-95.54
-87.58
-77.21
-65.37
-53.23
-41.92
-32.23
-24.58
-18.98
-15.29
-13.23
-12.53
-12.89
-13.91
-15.08
-15.88
-15.92
-15.05
-13.44
-11.43
-9.45
-7.77
-6.47
-5.43
-4.49
-3.59
-2.85
-2.61
-3.24
-4.91
-7.47
-10.47
-13.39
-15.94
-18.14
-20.37
-23.12
-26.74
-31.29
-36.42
-41.52
-45.73
-48.18
-48.08
-44.88
-38.48
-29.23
-18.02
-6.05
5.42
15.31
22.93
27.95
30.44
30.70
29.22
26.59
23.45
20.38
17.78
15.81
14.38
13.23
12.14
11.03
10.03
9.31
8.93
8.71
8.25
7.11
5.01
1.99
-1.66
-5.51
-9.21
-12.67
-16.01
-19.58
-23.73
-28.73
-34.59
-40.98
-47.11
-51.86
-53.97
-52.36
-46.45
-36.41
-23.12
-7.96
7.49
21.77
33.77
42.79
48.51
50.97
50.50
47.69
43.31
38.30
33.55
29.84
27.64
27.13
28.12
30.09
32.25
33.78
33.89
32.16
28.59
23.58
17.78
11.83
6.17
0.94
-3.99
-8.89
-14.05
-19.64
-25.76
-32.34
-39.02
-45.12
-49.62
-51.32
-49.21
-42.81
-32.49
-19.43
-5.34
7.98
19.11
27.21
32.04
33.78
32.84
29.75
25.08
19.57
13.98
9.05
5.30
2.93
1.82
1.62
1.94
2.48
3.03
3.39
3.34
2.57
0.90
-1.72
-5.11
-8.88
-12.67
-16.21
-19.54
-22.91
-26.76
-31.44
-37.04
-43.25
-49.21
-53.66
-55.21
-52.72
-45.69
-34.57
-20.63
-5.65
8.55
20.58
29.60
35.35
37.96
37.75
35.15
30.72
25.14
19.25
13.88
9.69
7.06
5.95
6.02
6.73
7.56
8.09
8.08
7.41
6.08
4.10
1.52
-1.59
-5.17
-9.17
-13.59
-18.53
-24.12
-30.35
-36.94
-43.16
-47.93
-49.94
-48.13
-42.02
-31.91
-18.96
-4.80
8.81
20.44
29.19
34.74
37.19
36.95
34.58
30.76
26.23
21.78
18.07
15.57
14.41
14.39
15.00
15.59
15.54
14.42
12.16
9.01
5.38
1.70
-1.80
-5.12
-8.49
-12.21
-16.58
-21.80
-28.01
-35.21
-43.11
-51.02
-57.68
-61.49
-60.93
-55.05
-43.96
-28.86
-11.69
5.39
20.57
32.70
41.20
45.99
47.18
45.11
40.28
33.52
25.87
18.47
12.34
8.11
5.96
5.60
6.34
7.31
7.64
6.63
3.98
-0.19
-5.43
-11.12
-16.71
-21.93
-26.77
-31.40
-36.05
-40.88
-45.99
-51.37
-56.82
-61.81
-65.34
-66.05
-62.52
-53.86
-40.14
-22.56
-3.20
15.59
31.83
44.34
52.78
57.37
58.58
56.86
52.67
46.56
39.30
31.81
25.02
19.66
16.05
14.07
13.25
13.02
12.80
12.19
11.00
9.15
6.68
3.66
0.25
-3.35
-6.98
-10.54
-14.03
-17.59
-21.49
-26.03
-31.44
-37.71
-44.50
-50.97
-55.97
-58.13
-56.29
-49.82
-38.96
-24.76
-8.97
6.54
20.14
30.86
38.43
43.15
45.58
46.28
45.68
44.08
41.69
38.77
35.54
32.13
28.52
24.59
20.27
15.66
11.18
7.36
4.66
3.23
2.76
2.67
2.26
1.02
-1.17
-4.10
-7.42
-10.79
-14.07
-17.38
-21.02
-25.32
-30.54
-36.76
-43.68
-50.55
-56.10
-58.70
-56.84
-49.59
-37.05
-20.46
-1.89
16.38
32.44
45.13
54.05
59.29
61.20
60.18
56.71
51.46
45.25
39.02
33.61
29.57
27.01
25.69
25.10
24.73
24.29
23.74
23.21
22.79
22.32
21.37
19.29
15.55
9.93
2.67
-5.66
-14.31
-22.66
-30.36
-37.36
-43.84
-50.17
-56.71
-63.77
-71.32
-78.89
-85.44
-89.53
-89.61
-84.60
-74.22
-59.24
-41.25
-22.28
-4.22
11.53
24.15
33.32
38.99
41.26
40.38
36.88
31.68
26.02
21.27
18.63
18.79
21.85
27.30
34.19
41.33
47.56
51.96
53.98
53.59
51.19
47.50
43.29
39.23
35.66
32.70
30.23
28.10
26.13
24.21
22.26
20.16
17.79
14.96
11.50
7.19
1.85
-4.67
-12.37
-20.88
-29.36
-36.51
-40.80
-40.87
-36.02
-26.49
-13.51
1.05
15.18
27.22
36.17
41.66
43.87
43.19
40.16
35.39
29.57
23.49
17.90
13.42
10.42
8.89
8.57
9.11
10.18
11.58
13.18
14.86
16.40
17.39
17.31
15.64
11.99
6.31
-1.11
-9.61
-18.40
-26.70
-33.97
-39.92
-44.47
-47.69
-49.61
-50.38
-50.24
-49.69
-49.42
-50.23
-52.71
-57.10
-62.99
-69.31
-74.43
-76.46
-73.75
-65.45
-51.80
-34.20
-14.82
4.00
20.38
33.26
42.36
47.90
50.26
49.77
46.75
41.70
35.37
28.84
23.26
19.49
17.90
18.22
19.64
21.23
22.25
22.30
21.48
20.12
18.48
16.56
14.09
10.73
6.31
1.05
-4.76
-10.60
-15.93
-20.47
-24.27
-27.69
-31.20
-35.22
-39.99
-45.84
-52.69
-59.97
-66.86
-72.43
-75.85
-76.38
-73.36
-66.44
-56.28
-43.81
-30.09
-16.30
-3.53
7.06
14.59
18.43
18.12
12.79
2.61
-10.64
-23.86
-33.22
-35.92
-31.05
-19.85
-1.24
21.74
43.83
60.35
69.48
71.87
67.91
57.21
39.45
15.62
-11.87
-38.85
-60.88
-77.33
-87.55
-92.50
-93.78
-92.54
-89.42
-85.03
-79.69
-73.60
-66.92
-59.38
-50.76
-40.62
-27.23
-10.35
9.02
29.32
49.02
66.93
82.51
95.22
104.68
110.75
113.36
112.71
109.36
103.92
96.77
88.01
77.31
64.49
49.87
34.24
18.84
4.91
-6.63
-15.53
-22.08
-27.19
-32.00
-37.63
-45.00
-54.44
-65.57
-77.35
-88.33
-97.09
-102.79
-105.37
-105.60
-104.68
-103.74
-103.28
-103.18
-102.83
-101.52
-98.81
-94.52
-88.60
-80.74
-70.23
-56.17
-37.86
-15.37
10.21
36.97
62.71
85.60
104.53
119.23
129.83
136.54
139.54
139.04
135.48
129.61
122.34
114.46
106.52
98.75
91.28
84.26
77.97
72.68
68.61
65.82
64.15
63.36
63.01
62.54
61.23
58.42
53.75
47.40
40.17
33.13
27.23
22.89
19.85
17.45
14.99
12.19
9.31
7.10
6.55
8.66
14.29
24.08
38.32
56.87
79.03
103.84
130.35
157.97
186.36
214.87
241.86
264.40
278.81
281.95
272.67
252.62
225.78
196.91
169.75
145.64
123.37
100.21
73.21
40.34
0.88
-44.43
-93.35
-142.14
-186.01
-220.26
-241.87
-250.77
-250.07
-244.72
-239.07
-234.51
-228.52
-215.91
-191.74
-154.42
-107.45
-58.95
-19.25
2.40
0.73
-24.06
-66.33
-116.53
-163.63
-197.92
-212.97
-206.81
-181.84
-143.82
-100.04
-57.52
-21.47
5.43
22.81
32.07
35.41
35.08
32.97
30.47
28.49
27.55
27.76
28.77
29.87
30.29
29.58
27.99
26.37
25.67
26.45
28.41
30.51
31.53
30.54
27.39
22.73
17.54
12.71
8.70
5.44
2.44
-0.80
-4.60
-9.02
-13.93
-19.18
-24.70
-30.45
-36.32
-41.88
-46.45
-49.16
-49.17
-45.97
-39.49
-30.14
-18.70
-6.20
6.25
17.64
27.10
34.08
38.28
39.75
38.78
35.97
32.11
28.13
24.89
22.99
22.64
23.57
25.19
26.79
27.80
27.90
27.01
25.23
22.69
19.55
15.95
12.08
8.01
3.86
-0.30
-4.40
-8.38
-12.24
-16.07
-20.14
-24.75
-30.20
-36.59
-43.71
-50.97
-57.38
-61.72
-62.73
-59.47
-51.61
-39.64
-24.79
-8.78
6.64
20.01
30.35
37.15
40.27
39.86
36.37
30.63
23.73
16.91
11.26
7.41
5.42
4.91
5.22
5.75
6.11
6.19
6.07
5.78
5.20
3.95
1.63
-2.09
-7.18
-13.30
-19.86
-26.18
-31.81
-36.51
-40.43
-43.99
-47.76
-52.33
-58.03
-64.77
-71.82
-77.89
-81.34
-80.68
-74.97
-64.20
-49.30
-31.90
-13.91
2.91
17.15
27.95
34.88
37.87
37.17
33.29
27.07
19.62
12.20
6.05
2.12
0.90
2.31
5.71
10.13
14.50
17.94
19.86
20.01
18.46
15.41
11.13
5.97
0.31
-5.41
-10.85
-15.80
-20.39
-24.98
-30.08
-36.04
-42.79
-49.66
-55.40
-58.50
-57.63
-52.07
-41.96
-28.29
-12.59
3.44
18.28
30.81
40.34
46.55
49.37
49.01
45.90
40.73
34.44
27.98
22.26
17.85
14.96
13.40
12.75
12.60
12.64
12.74
12.79
12.53
11.52
9.28
5.51
0.29
-5.84
-12.08
-17.74
-22.44
-26.31
-29.84
-33.65
-38.28
-44.00
-50.74
-58.05
-65.08
-70.70
-73.59
-72.51
-66.63
-55.81
-40.77
-23.07
-4.71
12.21
26.12
36.14
42.18
44.60
44.01
41.03
36.24
30.32
24.10
18.48
14.28
11.86
11.13
11.56
12.52
13.44
13.94
13.70
12.48
10.10
6.50
1.79
-3.75
-9.83
-16.24
-22.92
-29.91
-37.09
-44.01
-50.03
-54.59
-57.60
-59.40
-60.43
-60.69
-59.77
-56.68
-50.31
-40.04
-26.08
-9.47
8.31
25.91
42.42
56.85
68.64
77.91
85.32
91.66
97.33
102.13
105.43
106.57
103.77
95.98
83.72
69.63
58.08
53.88
60.73
79.65
107.57
135.26
151.64
147.73
120.08
71.49
9.17
-57.89
-121.50
-175.86
-220.90
-258.55
-290.50
-317.07
-337.94
-353.51
-365.15
-374.30
-364.05
-322.78
-249.39
-155.59
-58.37
29.50
102.45
159.86
203.14
234.20
252.20
256.63
249.52
235.60
220.31
207.45
198.06
190.91
184.24
173.35
154.57
127.71
95.35
61.34
28.61
-1.75
-30.16
-57.87
-83.62
-109.87
-138.32
-168.13
-195.14
-212.96
-215.17
-198.18
-163.33
-117.85
-72.42
-36.18
-14.53
-8.17
-14.11
-27.65
-43.89
-58.48
-68.46
-73.20
-71.37
-62.99
-49.83
-35.31
-23.75
-18.97
-23.12
-35.42
-52.51
-68.52
-78.23
-79.01
-71.91
-60.97
-51.09
-45.56
-45.22
-49.13
-55.42
-63.65
-74.41
-88.40
-105.25
-123.48
-141.42
-158.01
-176.00
-195.88
-216.13
-232.57
-239.37
-231.41
-206.78
-167.81
-120.06
-69.94
-21.60
23.44
65.94
107.54
149.47
192.22
235.63
279.07
321.02
358.95
388.76
406.13
408.12
394.93
370.30
340.29
311.07
286.71
268.50
255.02
243.68
232.14
219.07
204.07
187.08
168.15
147.43
125.63
103.98
84.09
67.49
55.11
46.92
41.95
38.64
35.33
30.82
24.65
17.15
9.19
1.77
-4.49
-9.60
-14.08
-18.73
-24.10
-30.21
-36.56
-42.31
-46.84
-49.93
-51.98
-53.72
-55.99
-59.37
-63.99
-69.52
-75.13
-79.64
-81.72
-80.17
-74.29
-64.11
-50.44
-34.76
-18.81
-4.16
8.10
17.47
23.86
27.45
28.50
27.33
24.37
20.27
15.85
11.97
9.34
8.31
8.85
10.57
12.93
15.37
17.44
18.83
19.36
18.96
17.76
15.96
13.83
11.52
9.04
6.25
2.93
-0.98
-5.32
-9.80
-13.99
-17.63
-20.68
-23.29
-25.82
-28.64
-32.20
-36.80
-42.58
-49.23
-55.95
-61.37
-63.95
-62.35
-55.97
-45.16
-31.19
-15.87
-1.05
11.84
21.96
29.06
33.28
34.98
34.59
32.61
29.62
26.25
23.08
20.57
18.95
18.17
18.05
18.29
18.69
19.12
19.51
19.83
19.97
19.73
18.86
17.18
14.65
11.41
7.81
4.23
1.00
-1.82
-4.41
-7.12
-10.28
-14.01
-18.12
-22.20
-25.77
-28.53
-30.52
-32.16
-34.11
-37.04
-41.38
-47.06
-53.44
-59.37
-63.33
-63.87
-59.99
-51.45
-38.95
-23.95
-8.26
6.40
18.84
28.47
35.23
39.34
41.11
40.79
38.71
35.35
31.37
27.54
24.56
22.82
22.30
22.63
23.30
23.88
24.18
24.23
24.19
24.10
23.79
22.90
21.04
18.00
13.90
9.17
4.41
0.13
-3.45
-6.44
-9.20
-12.05
-15.18
-18.44
-21.52
-24.09
-26.03
-27.49
-28.88
-30.75
-33.59
-37.77
-43.38
-50.13
-57.23
-63.37
-66.93
-66.37
-60.74
-50.07
-35.53
-19.06
-2.85
11.37
22.63
30.79
36.18
39.24
40.29
39.49
36.97
33.06
28.35
23.65
19.74
17.23
16.36
17.02
18.78
21.08
23.30
24.93
25.64
25.29
23.92
21.66
18.66
15.08
11.04
6.65
2.10
-2.43
-6.74
-10.68
-14.19
-17.31
-20.09
-22.65
-25.12
-27.66
-30.51
-33.97
-38.27
-43.40
-48.86
-53.62
-56.29
-55.57
-50.67
-41.67
-29.57
-15.95
-2.52
9.35
18.88
25.80
30.21
32.31
32.36
30.70
27.84
24.43
21.29
19.17
18.56
19.61
22.03
25.26
28.61
31.49
33.48
34.40
34.20
32.89
30.44
26.85
22.20
16.70
10.74
4.79
-0.79
-5.78
-10.17
-14.03
-17.48
-20.53
-23.19
-25.55
-27.93
-30.84
-34.87
-40.36
-47.10
-54.12
-59.88
-62.58
-60.83
-54.08
-42.81
-28.39
-12.60
2.84
16.65
28.09
36.90
43.06
46.63
47.66
46.32
42.91
38.04
32.56
27.40
23.34
20.79
19.66
19.51
19.70
19.76
19.48
19.00
18.52
18.17
17.78
16.92
15.11
12.03
7.68
2.45
-3.10
-8.35
-12.87
-16.43
-19.10
-21.15
-23.04
-25.37
-28.65
-33.20
-38.84
-44.78
-49.77
-52.27
-51.00
-45.31
-35.39
-22.25
-7.45
7.29
20.48
31.05
38.45
42.55
43.52
41.66
37.37
31.16
23.71
15.84
8.42
2.24
-2.20
-4.72
-5.51
-5.00
-3.67
-1.98
-0.17
1.61
3.24
4.50
5.04
4.38
2.17
-1.67
-6.75
-12.31
-17.50
-21.65
-24.57
-26.59
-28.40
-30.74
-34.21
-39.01
-44.81
-50.71
-55.32
-57.01
-54.32
-46.49
-33.78
-17.51
0.27
17.39
32.09
43.32
50.64
54.05
53.69
49.88
43.22
34.66
25.47
16.94
10.06
5.27
2.51
1.40
1.50
2.48
4.14
6.23
8.41
10.22
11.18
10.99
9.58
7.17
4.10
0.75
-2.58
-5.82
-9.10
-12.72
-17.15
-22.85
-30.09
-38.67
-47.70
-55.62
-60.47
-60.49
-54.74
-43.52
-28.36
-11.59
4.38
17.67
27.25
32.86
34.77
33.50
29.62
23.77
16.76
9.53
3.07
-1.83
-4.69
-5.54
-4.76
-2.99
-0.93
0.84
1.88
1.95
0.93
-1.17
-4.21
-7.97
-12.17
-16.60
-21.14
-25.82
-30.80
-36.33
-42.65
-49.89
-57.80
-65.62
-71.91
-74.84
-72.66
-64.34
-50.18
-31.81
-11.78
7.18
22.92
34.32
41.24
44.14
43.74
40.78
35.94
29.90
23.46
17.36
12.23
8.53
6.48
6.03
6.98
8.88
11.15
13.08
14.05
13.64
11.74
8.47
4.17
-0.81
-6.15
-11.59
-16.92
-22.02
-26.91
-31.79
-36.99
-42.72
-48.82
-54.46
-58.26
-58.58
-54.20
-44.74
-31.01
-14.74
1.94
17.11
29.48
38.51
44.18
46.72
46.44
43.73
39.13
33.43
27.55
22.41
18.62
16.43
15.72
16.13
17.21
18.56
19.87
20.84
21.15
20.49
18.61
15.42
11.06
5.89
0.35
-5.07
-10.10
-14.66
-18.95
-23.34
-28.29
-34.06
-40.56
-47.09
-52.35
-54.73
-52.76
-45.65
-33.69
-18.22
-1.27
15.08
29.22
40.25
47.88
52.18
53.34
51.61
47.42
41.50
34.87
28.62
23.70
20.59
19.29
19.43
20.42
21.70
22.86
23.60
23.76
23.22
21.93
19.83
16.91
13.14
8.56
3.35
-2.19
-7.56
-12.30
-16.13
-19.09
-21.59
-24.30
-27.89
-32.73
-38.61
-44.72
-49.78
-52.25
-50.82
-44.76
-34.18
-20.12
-4.26
11.44
25.29
36.16
43.58
47.57
48.45
46.60
42.55
36.92
30.58
24.51
19.64
16.61
15.56
16.18
17.78
19.63
21.14
21.98
22.09
21.49
20.26
18.37
15.77
12.41
8.41
4.01
-0.36
-4.26
-7.36
-9.53
-10.92
-11.95
-13.17
-15.15
-18.26
-22.55
-27.62
-32.62
-36.37
-37.66
-35.53
-29.64
-20.35
-8.67
3.96
16.01
26.26
33.86
38.41
39.81
38.29
34.27
28.49
21.93
15.70
10.79
7.87
7.11
8.16
10.38
12.98
15.27
16.83
17.52
17.36
16.49
14.95
12.67
9.56
5.54
0.78
-4.33
-9.24
-13.48
-16.80
-19.30
-21.36
-23.51
-26.19
-29.61
-33.62
-37.67
-40.83
-41.97
-40.03
-34.36
-24.98
-12.77
0.75
13.78
24.71
32.51
36.86
37.94
36.29
32.48
27.06
20.68
14.07
8.11
3.66
1.32
1.26
3.15
6.26
9.73
12.80
14.93
15.91
15.78
14.71
12.89
10.41
7.33
3.62
-0.68
-5.42
-10.25
-14.76
-18.48
-21.09
-22.52
-22.98
-22.97
-23.17
-24.27
-26.80
-30.88
-36.15
-41.63
-45.95
-47.61
-45.39
-38.80
-28.24
-14.97
-0.74
12.62
23.73
31.79
36.63
38.51
37.87
35.22
31.05
25.94
20.55
15.56
11.54
8.87
7.59
7.50
8.29
9.65
11.27
12.86
14.13
14.72
14.41
13.10
10.91
8.05
4.81
1.42
-1.95
-5.15
-7.98
-10.23
-11.73
-12.46
-12.59
-12.43
-12.35
-12.69
-13.69
-15.59
-18.60
-22.80
-27.96
-33.40
-37.88
-39.95
-38.32
-32.44
-22.76
-10.67
1.92
13.21
21.92
27.59
30.34
30.63
29.00
25.86
21.59
16.61
11.47
6.79
3.20
1.17
0.90
2.27
4.90
8.24
11.74
14.91
17.39
18.92
19.35
18.64
16.93
14.48
11.70
8.97
6.54
4.45
2.45
0.24
-2.46
-5.80
-9.70
-14.00
-18.56
-23.33
-28.42
-34.00
-40.23
-47.13
-54.46
-61.62
-67.71
-71.62
-72.30
-69.10
-62.00
-51.72
-39.49
-26.79
-14.96
-4.95
2.76
8.07
11.16
12.38
12.11
10.76
8.74
6.48
4.41
2.92
2.34
2.79
4.13
6.00
7.91
9.37
10.09
9.94
8.99
7.40
5.33
2.95
0.40
-2.22
-4.81
-7.30
-9.65
-11.77
-13.60
-15.05
-16.13
-16.90
-17.57
-18.32
-19.40
-21.00
-23.28
-26.34
-30.09
-34.07
-37.39
-38.86
-37.32
-32.04
-23.12
-11.42
1.63
14.49
25.88
34.98
41.42
45.06
45.92
44.09
39.86
33.77
26.68
19.61
13.56
9.28
7.10
6.84
7.97
9.78
11.62
13.04
13.84
14.05
13.70
12.79
11.21
8.83
5.57
1.58
-2.77
-6.99
-10.63
-13.41
-15.33
-16.64
-17.76
-19.14
-21.13
-23.92
-27.44
-31.20
-34.35
-35.82
-34.53
-29.82
-21.72
-11.04
0.89
12.57
22.78
30.76
36.19
39.05
39.39
37.32
33.13
27.31
20.70
14.29
9.02
5.47
3.81
3.76
4.76
6.27
7.90
9.42
10.69
11.54
11.66
10.72
8.52
5.07
0.73
-3.96
-8.43
-12.32
-15.56
-18.40
-21.29
-24.70
-28.94
-33.95
-39.23
-43.81
-46.45
-45.92
-41.44
-32.97
-21.24
-7.65
6.15
18.64
28.70
35.72
39.53
40.30
38.34
34.19
28.50
22.10
15.86
10.55
6.69
4.45
3.66
3.93
4.84
6.00
7.19
8.22
8.95
9.14
8.52
6.79
3.79
-0.42
-5.53
-11.01
-16.30
-20.98
-24.97
-28.49
-32.02
-36.05
-40.84
-46.25
-51.61
-55.80
-57.49
-55.49
-49.10
-38.43
-24.42
-8.62
7.12
21.15
32.27
39.84
43.76
44.27
41.83
37.08
30.80
23.89
17.27
11.74
7.86
5.83
5.44
6.28
7.76
9.42
10.95
12.20
13.06
13.37
12.84
11.12
7.97
3.49
-1.90
-7.51
-12.68
-16.97
-20.37
-23.21
-26.08
-29.53
-33.97
-39.44
-45.47
-51.13
-55.12
-56.04
-52.81
-45.02
-33.16
-18.55
-2.98
11.73
24.12
33.33
39.06
41.42
40.79
37.69
32.74
26.68
20.32
14.49
9.86
6.90
5.73
6.17
7.81
10.15
12.68
14.96
16.64
17.45
17.23
15.92
13.62
10.55
7.02
3.33
-0.30
-3.75
-7.13
-10.71
-14.84
-19.85
-25.81
-32.24
-38.14
-42.07
-42.63
-38.85
-30.61
-18.69
-4.54
10.12
23.71
35.00
43.19
47.86
48.94
46.68
41.70
34.94
27.50
20.43
14.53
10.21
7.50
6.19
5.97
6.56
7.70
9.13
10.51
11.43
11.47
10.35
8.00
4.61
0.57
-3.67
-7.76
-11.59
-15.31
-19.27
-23.87
-29.40
-35.83
-42.68
-48.95
-53.24
-54.08
-50.33
-41.64
-28.64
-12.79
3.92
19.55
32.55
42.03
47.66
49.55
48.13
44.01
38.00
31.05
24.14
18.12
13.57
10.70
9.38
9.26
9.88
10.83
11.83
12.71
13.35
13.53
12.92
11.12
7.85
3.17
-2.53
-8.56
-14.24
-19.09
-23.10
-26.60
-30.18
-34.38
-39.55
-45.60
-51.89
-57.23
-60.12
-59.03
-52.95
-41.75
-26.43
-8.81
8.86
24.62
37.17
46.01
51.22
53.20
52.35
49.02
43.71
37.14
30.28
24.22
19.77
17.29
16.54
16.86
17.50
17.96
18.06
17.92
17.68
17.28
16.40
14.55
11.32
6.66
0.94
-5.14
-10.87
-15.77
-19.81
-23.31
-26.85
-30.99
-36.12
-42.27
-49.05
-55.54
-60.39
-62.02
-59.15
-51.13
-38.39
-22.29
-4.80
12.06
26.72
38.23
46.17
50.48
51.29
48.92
43.96
37.35
30.28
23.98
19.34
16.79
16.20
17.02
18.53
20.09
21.28
21.92
22.00
21.52
20.40
18.51
15.72
12.02
7.57
2.78
-1.93
-6.20
-9.94
-13.33
-16.72
-20.53
-25.07
-30.44
-36.43
-42.50
-47.70
-50.78
-50.49
-45.90
-36.78
-23.79
-8.45
7.30
21.55
32.80
40.24
43.76
43.76
40.96
36.27
30.61
24.89
19.91
16.30
14.38
14.12
15.18
16.98
18.92
20.57
21.79
22.59
23.08
23.18
22.65
21.20
18.64
15.11
11.05
7.07
3.66
0.99
-1.14
-3.20
-5.76
-9.30
-14.01
-19.71
-25.73
-30.93
-33.87
-33.19
-28.05
-18.45
-5.40
9.40
23.99
36.68
46.44
52.85
55.92
55.88
52.97
47.60
40.39
32.31
24.53
18.14
13.78
11.53
10.87
11.04
11.32
11.30
10.87
10.08
8.92
7.27
4.94
1.75
-2.31
-7.13
-12.54
-18.31
-24.18
-29.85
-35.02
-39.44
-43.11
-46.28
-49.46
-53.26
-58.10
-64.02
-70.56
-76.72
-81.19
-82.60
-79.85
-72.47
-60.74
-45.72
-29.00
-12.31
2.85
15.46
24.99
31.35
34.71
35.40
33.87
30.73
26.75
22.81
19.70
17.99
17.83
19.00
20.91
22.93
24.49
25.34
25.46
25.00
24.08
22.69
20.68
17.85
14.14
9.66
4.75
-0.21
-4.86
-8.96
-12.48
-15.54
-18.40
-21.48
-25.23
-30.09
-36.17
-43.16
-50.14
-55.74
-58.40
-56.85
-50.45
-39.53
-25.22
-9.21
6.75
21.15
32.93
41.49
46.58
48.23
46.73
42.69
37.00
30.75
25.02
20.65
18.09
17.30
17.92
19.38
21.11
22.67
23.80
24.40
24.45
23.89
22.60
20.42
17.27
13.24
8.68
4.11
0.03
-3.20
-5.59
-7.45
-9.36
-11.90
-15.52
-20.34
-26.05
-31.88
-36.72
-39.25
-38.32
-33.21
-23.95
-11.43
2.82
17.02
29.55
39.32
45.88
49.22
49.63
47.42
43.02
36.97
30.11
23.49
18.14
14.82
13.75
14.58
16.55
18.74
20.38
21.03
20.57
19.13
16.89
13.95
10.36
6.03
0.94
-4.80
-10.88
-16.86
-22.30
-26.85
-30.47
-33.36
-35.99
-38.93
-42.71
-47.69
-53.88
-60.74
-67.17
-71.65
-72.55
-68.65
-59.59
-46.00
-29.38
-11.65
5.37
20.33
32.43
41.34
47.02
49.59
49.28
46.51
41.92
36.38
30.82
26.11
22.88
21.33
21.28
22.21
23.48
24.52
25.00
24.88
24.27
23.29
21.92
20.02
17.31
13.61
8.91
3.50
-2.17
-7.60
-12.43
-16.53
-20.07
-23.36
-26.79
-30.70
-35.34
-40.83
-47.02
-53.33
-58.72
-61.79
-61.12
-55.78
-45.68
-31.75
-15.66
0.62
15.40
27.55
36.56
42.40
45.24
45.33
43.01
38.79
33.41
27.77
22.78
19.15
17.23
16.96
17.91
19.47
21.02
22.10
22.52
22.28
21.54
20.38
18.77
16.49
13.32
9.10
3.98
-1.67
-7.27
-12.27
-16.36
-19.52
-22.02
-24.33
-26.91
-30.16
-34.31
-39.33
-44.85
-50.04
-53.73
-54.55
-51.36
-43.66
-31.79
-16.94
-0.79
14.96
28.94
40.25
48.45
53.38
55.14
54.08
50.84
46.35
41.68
37.81
35.40
34.65
35.34
37.02
39.18
41.40
43.45
45.20
46.57
47.38
47.36
46.17
43.54
39.42
33.98
27.64
20.94
14.30
7.93
1.77
-4.48
-11.16
-18.47
-26.33
-34.19
-41.10
-45.79
-47.06
-44.04
-36.62
-25.54
-12.25
1.45
13.89
23.82
30.56
33.95
34.08
31.20
25.74
18.32
9.94
1.83
-4.73
-8.76
-9.89
-8.36
-4.96
-0.66
3.66
7.45
10.49
12.79
14.32
14.90
14.24
11.98
7.98
2.40
-4.28
-11.36
-18.14
-24.11
-29.10
-33.26
-36.95
-40.66
-44.87
-49.91
-55.80
-62.10
-67.83
-71.59
-71.84
-67.45
-58.17
-44.74
-28.79
-12.32
2.81
15.27
24.42
30.14
32.60
32.11
29.11
24.20
18.23
12.14
6.82
2.88
0.50
-0.47
-0.37
0.49
1.97
3.98
6.47
9.24
11.96
14.22
15.57
15.63
14.20
11.26
6.99
1.83
-3.72
-9.18
-14.23
-18.82
-23.09
-27.30
-31.72
-36.48
-41.45
-46.21
-49.96
-51.63
-50.13
-44.75
-35.50
-23.18
-9.32
4.36
16.30
25.53
31.71
35.01
35.88
34.80
32.25
28.66
24.52
20.31
16.52
13.52
11.48
10.36
9.89
9.73
9.58
9.31
8.98
8.73
8.60
8.46
7.95
6.62
4.11
0.34
-4.43
-9.68
-14.83
-19.45
-23.41
-26.85
-30.16
-33.78
-38.09
-43.19
-48.84
-54.34
-58.54
-60.10
-57.77
-50.85
-39.48
-24.72
-8.25
8.01
22.39
33.74
41.47
45.41
45.69
42.72
37.15
29.96
22.30
15.29
9.72
6.03
4.16
3.85
4.68
6.24
8.08
9.79
10.92
11.12
10.18
8.09
5.00
1.12
-3.27
-7.88
-12.41
-16.62
-20.36
-23.73
-27.00
-30.60
-34.82
-39.56
-44.19
-47.51
-48.08
-44.63
-36.58
-24.30
-9.14
6.98
22.04
34.45
43.22
48.05
49.03
46.55
41.20
33.79
25.35
17.02
9.88
4.65
1.67
0.77
1.49
3.13
4.95
6.21
6.35
5.08
2.43
-1.27
-5.61
-10.22
-14.92
-19.60
-24.16
-28.44
-32.28
-35.67
-38.84
-42.11
-45.52
-48.57
-50.17
-48.89
-43.57
-33.87
-20.52
-5.17
10.20
23.75
34.36
41.65
45.81
47.30
46.60
44.10
40.20
35.43
30.42
25.80
22.05
19.38
17.67
16.65
15.95
15.32
14.60
13.57
12.00
9.60
6.12
1.54
-3.93
-9.86
-15.78
-21.35
-26.43
-31.18
-35.96
-41.24
-47.35
-54.29
-61.53
-67.88
-71.73
-71.43
-65.91
-55.10
-40.05
-22.66
-5.06
10.94
24.18
34.18
40.96
44.74
45.90
44.97
42.73
40.05
37.83
36.69
36.85
37.99
39.45
40.44
40.28
38.70
35.86
32.28
28.63
25.44
22.90
20.87
19.05
17.11
14.91
12.43
9.81
7.30
5.10
3.27
1.58
-0.58
-3.99
-9.21
-16.14
-23.67
-29.96
-33.00
-31.46
-25.27
-15.65
-4.61
5.83
14.25
19.99
22.96
23.30
21.12
16.49
9.63
1.16
-7.87
-16.10
-22.20
-25.27
-25.11
-22.27
-17.82
-12.95
-8.59
-5.17
-2.64
-0.69
0.88
2.04
2.44
1.63
-0.68
-4.38
-8.99
-13.77
-18.01
-21.31
-23.64
-25.37
-27.09
-29.44
-32.95
-37.90
-44.18
-51.15
-57.61
-61.93
-62.40
-57.75
-47.63
-32.79
-14.98
3.55
20.69
34.85
45.21
51.53
53.95
52.78
48.50
41.86
33.91
25.94
19.17
14.49
12.21
12.00
13.18
14.96
16.75
18.28
19.48
20.36
20.77
20.40
18.89
15.95
11.62
6.24
0.40
-5.20
-10.08
-14.01
-17.16
-20.01
-23.15
-27.09
-32.08
-37.93
-43.94
-49.01
-51.79
-51.04
-46.00
-36.71
-24.03
-9.46
5.23
18.55
29.46
37.57
42.88
45.64
46.15
44.71
41.71
37.74
33.53
29.90
27.50
26.66
27.23
28.65
30.14
30.96
30.70
29.36
27.35
25.25
23.43
21.95
20.45
18.38
15.26
10.92
5.60
-0.16
-5.74
-10.65
-14.63
-17.58
-19.48
-20.36
-20.45
-20.25
-20.45
-21.52
-23.31
-24.74
-24.14
-19.99
-11.75
-0.33
12.16
23.29
31.27
35.53
36.59
35.38
32.63
28.54
22.91
15.68
7.16
-1.77
-10.07
-16.81
-21.49
-24.10
-25.06
-24.88
-24.04
-22.86
-21.49
-19.98
-18.43
-17.01
-15.97
-15.60
-16.10
-17.54
-19.84
-22.74
-25.88
-28.84
-31.33
-33.22
-34.70
-36.14
-38.05
-40.86
-44.77
-49.67
-55.05
-60.01
-63.27
-63.45
-59.31
-50.23
-36.43
-19.16
-0.37
17.76
33.41
45.45
53.54
57.87
58.88
57.04
52.80
46.74
39.70
32.71
26.85
22.90
21.11
21.13
22.26
23.67
24.79
25.38
25.49
25.22
24.52
23.16
20.85
17.38
12.82
7.56
2.12
-3.00
-7.48
-11.24
-14.44
-17.41
-20.51
-24.08
-28.41
-33.61
-39.55
-45.69
-51.04
-54.24
-53.90
-49.00
-39.33
-25.61
-9.45
7.11
22.12
34.16
42.45
46.85
47.55
45.01
39.84
32.87
25.19
17.98
12.30
8.80
7.56
8.13
9.74
11.59
13.10
14.02
14.30
13.99
13.02
11.20
8.28
4.15
-1.02
-6.74
-12.40
-17.54
-22.00
-26.05
-30.22
-35.08
-40.88
-47.35
-53.62
-58.36
-60.07
-57.57
-50.34
-38.82
-24.32
-8.65
6.32
19.21
29.28
36.39
40.75
42.68
42.44
40.34
36.85
32.67
28.58
25.31
23.16
22.06
21.50
20.90
19.84
18.20
16.18
14.10
12.19
10.48
8.71
6.50
3.52
-0.36
-4.95
-9.89
-14.73
-19.20
-23.29
-27.32
-31.83
-37.32
-44.05
-51.74
-59.48
-65.75
-68.78
-67.06
-59.79
-47.27
-30.79
-12.37
5.87
22.13
35.29
44.79
50.53
52.61
51.35
47.27
41.18
34.12
27.25
21.54
17.62
15.59
15.09
15.55
16.39
17.23
17.91
18.34
18.43
17.89
16.31
13.34
8.81
2.93
-3.81
-10.72
-17.16
-22.69
-27.19
-30.90
-34.40
-38.42
-43.59
-50.14
-57.53
-64.48
-69.12
-69.52
-64.34
-53.25
-37.07
-17.58
3.04
22.61
39.47
52.51
61.21
65.51
65.66
62.21
55.99
48.02
39.52
31.72
25.63
21.89
20.57
21.22
23.05
25.14
26.82
27.71
27.79
27.12
25.71
23.38
19.84
14.88
8.66
1.68
-5.31
-11.57
-16.73
-20.86
-24.36
-27.84
-31.89
-36.82
-42.70
-49.19
-55.50
-60.41
-62.47
-60.35
-53.28
-41.38
-25.74
-8.21
9.16
24.57
36.80
45.29
49.91
50.87
48.52
43.45
36.50
28.82
21.65
16.06
12.71
11.62
12.28
13.91
15.78
17.41
18.64
19.50
19.95
19.82
18.75
16.41
12.63
7.63
1.94
-3.75
-8.82
-12.95
-16.16
-18.79
-21.40
-24.60
-28.90
-34.50
-41.04
-47.56
-52.59
-54.47
-51.84
-44.16
-31.83
-16.19
0.86
17.38
31.72
42.74
49.88
53.02
52.41
48.64
42.59
35.33
28.00
21.58
16.77
13.79
12.50
12.50
13.32
14.61
16.08
17.50
18.56
18.82
17.84
15.37
11.40
6.29
0.62
-4.99
-10.12
-14.64
-18.70
-22.74
-27.30
-32.84
-39.49
-46.83
-53.81
-58.88
-60.35
-56.98
-48.42
-35.47
-19.86
-3.80
10.62
21.84
29.12
32.42
32.25
29.36
24.70
19.22
13.85
9.47
6.72
5.88
6.81
8.98
11.61
13.96
15.53
16.15
15.94
15.11
13.74
11.71
8.74
4.60
-0.70
-6.83
-13.21
-19.20
-24.38
-28.74
-32.71
-37.00
-42.37
-49.21
-57.34
-65.87
-73.30
-77.88
-78.02
-72.78
-62.17
-47.19
-29.58
-11.32
5.78
20.48
32.13
40.54
45.76
47.94
47.27
44.14
39.27
33.69
28.61
25.09
23.71
24.48
26.81
29.83
32.64
34.63
35.48
35.15
33.69
31.11
27.37
22.52
16.74
10.46
4.22
-1.42
-6.12
-9.86
-12.95
-16.00
-19.72
-24.78
-31.56
-39.94
-49.14
-57.70
-63.78
-65.60
-62.02
-53.00
-39.55
-23.54
-7.04
8.13
20.82
30.45
36.87
40.09
40.23
37.61
32.88
27.06
21.31
16.73
14.03
13.39
14.52
16.79
19.51
22.05
23.99
25.10
25.29
24.51
22.75
19.93
16.06
11.17
5.49
-0.61
-6.64
-12.14
-16.89
-20.89
-24.49
-28.18
-32.48
-37.76
-44.07
-51.01
-57.71
-62.94
-65.31
-63.59
-57.11
-46.02
-31.34
-14.75
1.85
16.75
28.77
37.29
42.14
43.46
41.59
37.04
30.60
23.31
16.37
10.83
7.38
6.15
6.72
8.36
10.29
11.91
12.90
13.12
12.47
10.76
7.81
3.50
-2.00
-8.29
-14.78
-20.89
-26.30
-31.03
-35.38
-39.84
-44.82
-50.60
-57.02
-63.44
-68.69
-71.17
-69.20
-61.55
-47.86
-28.92
-6.54
16.88
38.92
57.61
71.73
80.71
84.50
83.45
78.23
69.91
59.96
50.01
41.61
35.79
32.85
32.33
33.32
34.79
36.02
36.64
36.63
36.07
34.94
32.99
29.87
25.31
19.30
12.17
4.54
-2.87
-9.49
-15.07
-19.75
-23.97
-28.35
-33.48
-39.73
-47.09
-54.97
-62.20
-67.12
-68.01
-63.60
-53.60
-38.87
-21.21
-2.87
14.07
28.17
38.71
45.53
48.76
48.69
45.73
40.51
33.96
27.15
21.14
16.66
14.03
13.15
13.61
14.91
16.59
18.30
19.72
20.58
20.56
19.37
16.79
12.78
7.54
1.49
-4.79
-10.70
-15.87
-20.24
-24.13
-28.08
-32.62
-38.13
-44.50
-51.21
-57.25
-61.33
-62.13
-58.67
-50.53
-38.13
-22.65
-5.83
10.46
24.64
35.65
43.02
46.76
47.16
44.69
39.99
33.92
27.46
21.64
17.23
14.65
13.87
14.49
15.99
17.85
19.66
21.07
21.81
21.58
20.18
17.49
13.63
8.93
3.85
-1.08
-5.49
-9.19
-12.31
-15.20
-18.32
-22.14
-26.93
-32.60
-38.60
-43.93
-47.22
-47.15
-42.78
-33.94
-21.39
-6.66
8.36
21.92
32.77
40.30
44.44
45.43
43.68
39.68
34.13
27.92
22.07
17.49
14.79
14.07
14.99
16.95
19.26
21.35
22.81
23.36
22.80
21.03
18.13
14.30
9.86
5.19
0.56
-3.91
-8.32
-12.86
-17.83
-23.46
-29.84
-36.75
-43.45
-48.77
-51.29
-49.73
-43.43
-32.66
-18.60
-3.07
11.98
24.91
34.69
40.91
43.62
43.15
40.03
34.93
28.66
22.14
16.33
11.94
9.37
8.55
9.03
10.16
11.35
12.23
12.66
12.63
12.08
10.84
8.67
5.42
1.13
-3.87
-9.10
-14.10
-18.62
-22.62
-26.33
-30.12
-34.41
-39.46
-45.24
-51.23
-56.29
-58.92
-57.63
-51.47
-40.51
-25.89
-9.55
6.38
20.13
30.63
37.51
40.89
41.10
38.62
34.09
28.39
22.58
17.72
14.58
13.38
13.77
15.00
16.23
16.82
16.57
15.61
14.32
13.02
11.79
10.45
8.61
5.87
2.03
-2.80
-8.22
-13.63
-18.52
-22.61
-26.03
-29.22
-32.76
-37.13
-42.45
-48.39
-54.17
-58.66
-60.69
-59.20
-53.58
-43.89
-30.88
-15.95
-0.85
12.74
23.56
31.00
35.07
36.13
34.76
31.47
26.81
21.37
15.88
11.11
7.66
5.86
5.65
6.65
8.38
10.39
12.37
14.09
15.34
15.86
15.39
13.73
10.86
6.98
2.52
-2.01
-6.15
-9.64
-12.53
-15.11
-17.92
-21.43
-25.97
-31.42
-37.15
-42.10
-44.86
-44.13
-39.02
-29.46
-16.21
-0.86
14.69
28.61
39.54
46.82
50.31
50.34
47.38
42.07
35.26
28.00
21.48
16.82
14.70
15.10
17.33
20.20
22.56
23.58
23.01
21.07
18.18
14.72
10.78
6.35
1.39
-3.95
-9.33
-14.29
-18.46
-21.72
-24.22
-26.33
-28.53
-31.22
-34.75
-39.29
-44.78
-50.77
-56.28
-59.95
-60.30
-56.20
-47.34
-34.47
-19.16
-3.34
11.17
23.09
31.84
37.32
39.78
39.56
37.07
32.84
27.53
21.91
16.75
12.67
10.02
8.83
8.84
9.63
10.72
11.72
12.40
12.70
12.59
12.02
10.81
8.73
5.52
1.16
-4.10
-9.73
-15.09
-19.66
-23.24
-25.98
-28.29
-30.69
-33.64
-37.44
-42.12
-47.34
-52.33
-55.89
-56.64
-53.41
-45.71
-33.99
-19.60
-4.40
9.79
21.60
30.34
35.85
38.33
38.07
35.41
30.80
24.93
18.72
13.14
9.03
6.81
6.37
7.26
8.84
10.59
12.19
13.51
14.47
14.92
14.59
13.18
10.49
6.57
1.71
-3.60
-8.80
-13.47
-17.33
-20.38
-22.85
-25.12
-27.62
-30.75
-34.72
-39.43
-44.37
-48.60
-50.92
-50.17
-45.53
-36.93
-25.10
-11.35
2.70
15.55
26.06
33.57
37.85
38.99
37.36
33.54
28.28
22.43
16.84
12.26
9.19
7.87
8.21
9.86
12.31
15.01
17.51
19.45
20.57
20.71
19.78
17.79
14.91
11.40
7.55
3.63
-0.22
-4.00
-7.82
-11.93
-16.56
-21.89
-27.81
-33.78
-38.77
-41.40
-40.35
-34.83
-24.98
-11.90
2.66
16.77
28.83
37.84
43.38
45.43
44.20
40.07
33.63
25.81
17.75
10.58
5.15
1.76
0.16
-0.26
-0.18
-0.11
-0.38
-1.18
-2.74
-5.29
-9.02
-13.96
-19.82
-26.11
-32.20
-37.55
-41.86
-45.12
-47.60
-49.84
-52.49
-56.18
-61.21
-67.26
-73.32
-77.79
-78.89
-75.21
-66.16
-52.15
-34.55
-15.28
3.65
20.51
34.11
43.92
49.93
52.54
52.37
50.12
46.45
42.01
37.38
33.11
29.60
27.05
25.42
24.55
24.17
24.06
23.99
23.67
22.78
20.94
17.86
13.40
7.71
1.17
-5.67
-12.29
-18.29
-23.53
-28.20
-32.76
-37.84
-43.93
-51.15
-58.98
-66.16
-70.97
-71.63
-66.85
-56.26
-40.61
-21.57
-1.30
18.03
34.75
47.84
56.90
62.06
63.71
62.41
58.90
53.98
48.53
43.34
39.02
35.87
33.87
32.74
32.10
31.54
30.78
29.64
28.01
25.77
22.79
18.92
14.07
8.31
1.91
-4.71
-11.10
-16.95
-22.25
-27.31
-32.66
-38.82
-46.03
-53.91
-61.46
-67.11
-69.17
-66.31
-58.02
-44.86
-28.31
-10.41
6.84
21.87
33.77
42.19
47.12
48.70
47.22
43.17
37.34
30.77
24.56
19.59
16.34
14.80
14.62
15.33
16.51
17.84
19.06
19.86
19.91
18.83
16.41
12.64
7.74
2.17
-3.57
-8.98
-13.80
-17.99
-21.84
-25.82
-30.51
-36.30
-43.20
-50.64
-57.39
-61.84
-62.37
-57.84
-48.01
-33.72
-16.65
1.10
17.57
31.30
41.41
47.62
50.01
48.89
44.82
38.57
31.13
23.62
17.05
12.18
9.40
8.73
9.85
12.19
15.11
17.94
20.13
21.33
21.36
20.25
18.13
15.16
11.51
7.32
2.73
-2.21
-7.52
-13.39
-20.08
-27.75
-36.16
-44.46
-51.16
-54.50
-52.94
-45.77
-33.44
-17.46
0.02
16.78
31.10
41.91
48.78
51.69
50.93
46.91
40.30
32.04
23.25
15.11
8.61
4.32
2.39
2.51
4.04
6.23
8.35
9.76
10.07
9.05
6.72
3.25
-1.07
-5.86
-10.80
-15.64
-20.34
-25.08
-30.26
-36.35
-43.66
-52.00
-60.50
-67.61
-71.41
-70.20
-63.04
-50.16
-32.95
-13.64
5.36
22.05
35.11
44.02
48.80
49.78
47.46
42.48
35.64
27.92
20.33
13.78
8.92
5.98
4.87
5.23
6.56
8.33
10.05
11.34
11.87
11.43
9.90
7.22
3.43
-1.35
-6.91
-13.06
-19.64
-26.62
-34.16
-42.49
-51.64
-61.25
-70.31
-77.24
-80.18
-77.54
-68.49
-53.38
-33.67
-11.65
10.11
29.40
44.70
55.29
61.20
62.91
61.18
56.89
50.99
44.47
38.27
33.18
29.69
27.89
27.55
28.15
29.18
30.21
30.99
31.34
31.07
29.92
27.54
23.64
18.17
11.43
4.03
-3.30
-9.96
-15.75
-20.92
-26.08
-31.96
-39.05
-47.39
-56.35
-64.62
-70.47
-72.11
-68.20
-58.34
-43.23
-24.58
-4.68
14.21
30.33
42.70
51.04
55.53
56.60
54.72
50.45
44.52
37.84
31.49
26.52
23.61
22.91
23.99
26.00
27.99
29.24
29.51
28.90
27.67
25.93
23.55
20.17
15.46
9.37
2.31
-5.02
-11.83
-17.59
-22.24
-26.12
-29.87
-34.15
-39.45
-46.01
-53.68
-61.77
-69.03
-73.77
-74.22
-69.09
-58.07
-42.05
-22.91
-3.02
15.47
31.03
42.85
50.67
54.55
54.70
51.56
45.91
38.88
31.79
25.88
21.99
20.42
20.96
23.04
25.97
29.12
31.94
34.03
35.11
35.00
33.59
30.86
26.87
21.83
16.05
10.02
4.17
-1.15
-5.89
-10.35
-15.11
-20.83
-27.97
-36.47
-45.58
-53.78
-59.22
-60.12
-55.43
-45.19
-30.61
-13.63
3.54
19.05
31.67
40.77
46.11
47.72
45.80
40.83
33.69
25.62
18.02
12.13
8.76
8.07
9.67
12.83
16.68
20.43
23.53
25.62
26.48
25.91
23.74
19.83
14.21
7.23
-0.46
-7.97
-14.44
-19.31
-22.47
-24.35
-25.74
-27.60
-30.83
-36.05
-43.40
-52.37
-61.68
-69.47
-73.64
-72.37
-64.79
-51.19
-33.07
-12.68
7.59
25.72
40.38
50.88
57.09
59.15
57.50
52.77
45.87
37.94
30.20
23.73
19.26
17.03
16.77
17.88
19.64
21.41
22.80
23.65
23.95
23.66
22.65
20.59
17.19
12.26
5.98
-1.14
-8.32
-14.82
-20.14
-24.29
-27.73
-31.21
-35.56
-41.33
-48.58
-56.76
-64.65
-70.58
-72.80
-69.88
-61.24
-47.33
-29.67
-10.37
8.30
24.53
37.19
45.85
50.65
51.97
50.34
46.34
40.67
34.20
27.87
22.63
19.20
17.88
18.51
20.48
22.93
25.11
26.48
26.86
26.31
24.96
22.87
20.00
16.23
11.56
6.14
0.31
-5.51
-10.96
-15.80
-20.03
-23.81
-27.53
-31.67
-36.69
-42.92
-50.44
-58.95
-67.78
-75.80
-81.59
-83.63
-80.71
-72.27
-58.66
-41.20
-21.81
-2.67
14.43
28.22
38.12
44.03
46.17
44.96
40.97
35.03
28.13
21.44
16.08
12.85
12.07
13.50
16.47
20.16
23.82
27.03
29.63
31.64
33.08
33.80
33.55
32.08
29.36
25.64
21.39
17.13
13.20
9.68
6.33
2.77
-1.38
-6.31
-12.06
-18.54
-25.49
-32.52
-38.87
-43.44
-44.88
-42.03
-34.36
-22.29
-7.23
8.88
24.06
36.79
46.15
51.75
53.47
51.40
45.84
37.49
27.51
17.39
8.59
2.13
-1.64
-3.07
-2.89
-1.86
-0.55
0.77
1.96
2.87
3.18
2.46
0.37
-3.22
-8.12
-13.88
-19.92
-25.70
-30.91
-35.50
-39.70
-43.97
-48.84
-54.67
-61.34
-68.13
-73.68
-76.31
-74.49
-67.37
-55.10
-38.84
-20.45
-2.02
14.64
28.23
38.06
43.94
46.05
44.81
40.90
35.15
28.55
22.08
16.56
12.54
10.23
9.51
10.02
11.27
12.81
14.26
15.34
15.83
15.50
14.08
11.37
7.28
2.00
-4.06
-10.33
-16.28
-21.61
-26.32
-30.77
-35.51
-41.10
-47.75
-55.17
-62.34
-67.72
-69.56
-66.47
-57.92
-44.39
-27.32
-8.67
9.59
25.80
38.84
48.06
53.25
54.50
52.25
47.21
40.37
32.84
25.63
19.55
15.01
12.08
10.52
10.00
10.16
10.69
11.38
12.02
12.29
11.81
10.22
7.29
3.06
-2.11
-7.71
-13.25
-18.41
-23.21
-27.94
-33.07
-39.01
-45.94
-53.57
-61.03
-66.97
-69.71
-67.81
-60.47
-47.88
-31.33
-12.80
5.47
21.60
34.35
43.14
47.88
48.78
46.24
40.87
33.57
25.46
17.77
11.52
7.33
5.31
5.13
6.26
8.10
10.21
12.29
14.12
15.53
16.26
15.90
14.00
10.13
4.02
-4.24
-14.19
-25.08
-36.02
-46.24
-55.17
-62.49
-67.93
-71.07
-71.24
-67.59
-59.49
-47.00
-31.03
-13.39
3.72
18.31
29.08
35.65
38.39
38.06
35.51
31.52
26.75
21.82
17.32
13.70
11.30
10.24
10.40
11.51
13.14
14.80
15.96
16.23
15.34
13.22
9.93
5.65
0.60
-4.97
-10.82
-16.75
-22.67
-28.66
-35.08
-42.40
-50.99
-60.76
-70.89
-79.72
-85.11
-84.98
-78.10
-64.55
-45.81
-24.37
-3.02
15.89
30.88
41.36
47.43
49.58
48.49
44.94
39.78
33.94
28.25
23.39
19.75
17.44
16.42
16.48
17.37
18.75
20.12
20.99
20.87
19.46
16.65
12.59
7.51
1.71
-4.58
-11.25
-18.29
-25.94
-34.55
-44.51
-55.90
-68.19
-80.02
-89.36
-93.96
-92.09
-83.21
-68.14
-48.86
-27.92
-7.74
9.89
23.92
33.92
39.91
42.18
41.32
38.18
33.85
29.52
26.28
24.89
25.66
28.42
32.61
37.44
42.18
46.24
49.30
51.24
52.06
51.76
50.33
47.77
44.15
39.64
34.49
28.90
22.94
16.46
9.14
0.61
-9.23
-19.97
-30.53
-39.23
-44.24
-44.10
-38.24
-27.16
-12.35
4.22
20.61
35.21
46.91
55.07
59.38
59.81
56.67
50.55
42.42
33.47
25.00
18.18
13.82
12.24
13.14
15.75
19.03
21.98
23.95
24.71
24.42
23.41
21.95
20.15
17.93
15.05
11.25
6.23
-0.23
-8.22
-17.47
-27.18
-35.96
-42.03
-43.67
-39.79
-30.38
-16.53
-0.20
16.41
31.38
43.40
51.79
56.37
57.23
54.71
49.35
42.08
34.02
26.39
20.18
15.94
13.74
13.21
13.76
14.71
15.46
15.50
14.51
12.36
9.18
5.19
0.72
-4.05
-9.08
-14.51
-20.52
-27.25
-34.76
-43.03
-51.88
-60.83
-68.93
-74.71
-76.44
-72.66
-62.72
-47.25
-28.09
-7.76
11.25
27.07
38.76
46.17
49.59
49.52
46.55
41.44
35.08
28.53
22.68
18.20
15.36
14.09
14.14
15.15
16.72
18.38
19.58
19.76
18.49
15.58
11.19
5.71
-0.36
-6.55
-12.47
-17.93
-22.99
-27.95
-33.29
-39.52
-46.81
-54.70
-62.05
-67.17
-68.36
-64.43
-55.12
-41.19
-24.20
-6.07
11.31
26.35
37.97
45.58
49.08
48.88
45.72
40.59
34.57
28.69
23.73
20.16
18.14
17.43
17.62
18.22
18.82
19.19
19.25
18.93
18.14
16.69
14.35
11.01
6.76
1.90
-3.14
-7.96
-12.32
-16.24
-20.00
-24.11
-29.08
-35.27
-42.58
-50.33
-57.29
-61.88
-62.64
-58.57
-49.50
-36.11
-19.74
-2.07
15.21
30.64
43.11
51.91
56.74
57.73
55.39
50.57
44.33
37.73
31.76
27.18
24.43
23.58
24.36
26.24
28.61
30.91
32.77
33.96
34.28
33.54
31.51
28.05
23.22
17.41
11.17
5.09
-0.48
-5.51
-10.30
-15.30
-20.94
-27.41
-34.51
-41.54
-47.43
-50.80
-50.38
-45.37
-35.75
-22.40
-6.94
8.76
22.99
34.56
42.95
48.13
50.33
49.89
47.16
42.63
36.92
30.89
25.43
21.30
18.88
18.09
18.40
19.12
19.61
19.47
18.62
17.16
15.21
12.79
9.78
5.96
1.24
-4.33
-10.44
-16.68
-22.57
-27.73
-31.95
-35.26
-37.92
-40.43
-43.37
-47.34
-52.75
-59.61
-67.36
-74.83
-80.39
-82.31
-79.33
-71.03
-58.01
-41.81
-24.47
-7.91
6.38
17.67
25.81
31.09
33.89
34.58
33.49
30.98
27.53
23.75
20.37
18.02
17.10
17.69
19.51
22.05
24.70
26.96
28.43
28.88
28.20
26.36
23.38
19.35
14.42
8.86
3.06
-2.54
-7.46
-11.32
-13.96
-15.45
-16.24
-16.96
-18.39
-21.22
-25.98
-32.76
-41.18
-50.23
-58.36
-63.71
-64.50
-59.55
-48.71
-32.95
-14.25
5.03
22.61
36.86
46.96
52.75
54.60
53.13
49.10
43.38
36.90
30.55
25.10
21.08
18.69
17.86
18.27
19.47
20.97
22.32
23.10
23.04
21.98
19.85
16.69
12.55
7.56
1.85
-4.35
-10.73
-16.93
-22.58
-27.43
-31.36
-34.45
-36.97
-39.28
-41.78
-44.87
-48.85
-53.81
-59.56
-65.38
-70.12
-72.32
-70.57
-64.06
-52.82
-37.89
-21.01
-4.18
10.84
22.88
31.43
36.45
38.22
37.16
33.78
28.78
23.00
17.40
12.86
9.97
8.98
9.70
11.66
14.28
17.07
19.77
22.36
24.88
27.27
29.32
30.57
30.56
28.97
25.85
21.51
16.42
11.00
5.39
-0.46
-6.67
-13.30
-20.23
-27.14
-33.57
-38.91
-42.38
-43.10
-40.17
-33.04
-21.80
-7.38
8.50
23.76
36.46
45.28
49.67
49.77
46.19
39.75
31.45
22.40
13.83
6.94
2.66
1.33
2.63
5.61
8.98
11.60
12.75
12.31
10.57
8.03
5.06
1.75
-2.03
-6.49
-11.71
-17.52
-23.54
-29.29
-34.38
-38.57
-41.86
-44.47
-46.76
-49.21
-52.23
-56.04
-60.46
-64.81
-67.94
-68.45
-65.07
-57.05
-44.44
-28.14
-9.76
8.83
25.85
39.91
50.15
56.18
58.01
55.97
50.76
43.39
35.14
27.40
21.39
17.80
16.77
17.78
19.99
22.41
24.29
25.22
25.10
24.03
22.11
19.38
15.75
11.18
5.77
-0.20
-6.31
-12.23
-17.74
-22.86
-27.72
-32.51
-37.40
-42.47
-47.76
-53.06
-57.85
-61.15
-61.75
-58.52
-50.87
-39.15
-24.57
-8.94
5.91
18.50
28.01
34.14
36.96
36.76
33.94
29.08
22.97
16.56
10.81
6.48
3.95
3.16
3.69
4.98
6.52
8.00
9.29
10.37
11.10
11.17
10.19
7.83
4.10
-0.64
-5.75
-10.56
-14.59
-17.77
-20.36
-22.83
-25.72
-29.43
-34.16
-39.69
-45.37
-50.01
-52.22
-50.64
-44.52
-34.00
-20.20
-4.82
10.25
23.45
33.74
40.66
44.13
44.42
42.00
37.55
31.94
26.08
20.81
16.77
14.35
13.67
14.56
16.64
19.37
22.17
24.50
25.95
26.28
25.38
23.28
20.11
16.11
11.63
7.02
2.53
-1.81
-6.20
-11.06
-16.70
-23.14
-29.84
-35.74
-39.43
-39.61
-35.42
-26.86
-14.84
-0.96
12.89
24.96
34.03
39.52
41.39
40.03
36.02
30.05
22.89
15.37
8.30
2.39
-1.90
-4.40
-5.29
-4.99
-4.09
-3.23
-2.98
-3.70
-5.48
-8.11
-11.17
-14.16
-16.72
-18.63
-19.94
-20.85
-21.65
-22.70
-24.46
-27.36
-31.65
-37.17
-43.18
-48.38
-51.11
-49.90
-43.90
-33.17
-18.71
-2.13
14.79
30.47
43.79
54.05
60.92
64.24
64.08
60.63
54.33
45.91
36.23
26.25
16.87
8.78
2.44
-1.91
-4.26
-4.77
-3.87
-2.14
-0.29
1.01
1.22
0.08
-2.47
-6.28
-11.13
-16.84
-23.26
-30.37
-38.17
-46.59
-55.34
-63.73
-70.58
-74.42
-73.81
-67.90
-56.77
-41.52
-23.97
-6.18
10.08
23.59
33.69
40.15
42.97
42.37
38.82
33.07
26.13
19.07
12.80
7.92
4.64
2.89
2.37
2.72
3.61
4.70
5.65
6.18
5.96
4.78
2.54
-0.66
-4.56
-8.81
-13.04
-17.07
-20.95
-25.00
-29.65
-35.33
-42.16
-49.75
-57.07
-62.57
-64.57
-61.73
-53.59
-40.77
-24.81
-7.76
8.41
22.23
32.89
40.10
43.92
44.51
42.25
37.72
31.79
25.50
19.83
15.53
12.96
12.11
12.78
14.63
17.24
20.07
22.50
23.91
23.87
22.29
19.35
15.42
10.84
5.82
0.38
-5.48
-11.74
-18.31
-25.14
-32.14
-39.09
-45.42
-50.09
-51.75
-49.06
-41.34
-28.81
-12.78
4.70
21.40
35.41
45.55
51.41
53.29
51.93
48.35
43.60
38.68
34.40
31.25
29.38
28.59
28.43
28.35
27.89
26.84
25.22
23.27
21.25
19.34
17.47
15.41
12.84
9.53
5.45
0.78
-4.20
-9.19
-14.07
-18.99
-24.27
-30.29
-37.26
-44.96
-52.64
-58.99
-62.50
-61.75
-56.00
-45.35
-30.86
-14.21
2.70
18.16
30.95
40.34
46.05
48.18
47.04
43.17
37.30
30.34
23.28
17.08
12.48
9.81
8.94
9.33
10.31
11.26
11.76
11.63
10.75
8.92
5.87
1.34
-4.79
-12.24
-20.40
-28.46
-35.59
-41.21
-45.16
-47.76
-49.64
-51.59
-54.26
-57.90
-62.21
-66.27
-68.77
-68.28
-63.69
-54.50
-41.06
-24.50
-6.43
11.48
27.89
41.97
53.39
62.01
67.68
70.18
69.39
65.50
59.26
51.87
44.65
38.76
34.83
32.92
32.66
33.47
34.71
35.88
36.57
36.51
35.53
33.61
30.82
27.28
23.12
18.51
13.63
8.70
3.99
-0.31
-4.14
-7.66
-11.17
-15.05
-19.62
-25.15
-31.61
-38.75
-45.87
-51.85
-55.29
-54.80
-49.50
-39.39
-25.54
-9.79
5.67
18.93
28.75
34.76
37.23
36.86
34.49
30.90
26.85
22.96
19.77
17.56
16.41
16.11
16.27
16.42
16.18
15.41
14.22
12.95
12.05
11.82
12.37
13.50
14.77
15.66
15.68
14.53
12.16
8.71
4.49
-0.12
-4.78
-9.25
-13.45
-17.47
-21.51
-25.83
-30.55
-35.60
-40.55
-44.66
-46.90
-46.27
-42.02
-34.01
-22.79
-9.60
3.99
16.42
26.49
33.56
37.47
38.41
36.79
33.14
28.11
22.48
17.07
12.65
9.80
8.71
9.25
10.99
13.35
15.80
17.91
19.36
19.96
19.54
18.01
15.40
11.90
7.86
3.77
0.01
-3.22
-6.02
-8.74
-11.81
-15.62
-20.36
-25.96
-32.00
-37.72
-41.96
-43.51
-41.29
-34.84
-24.54
-11.64
2.02
14.58
24.57
31.25
34.50
34.66
32.22
27.72
21.71
14.91
8.20
2.48
-1.51
-3.50
-3.71
-2.76
-1.31
0.10
1.25
2.10
2.65
2.79
2.26
0.81
-1.73
-5.27
-9.53
-14.06
-18.49
-22.51
-26.09
-29.37
-32.68
-36.39
-40.80
-45.85
-51.05
-55.39
-57.53
-56.22
-50.68
-40.93
-27.88
-13.06
1.71
14.84
25.19
32.26
35.98
36.63
34.69
30.75
25.55
19.91
14.67
10.53
7.89
6.79
6.92
7.85
9.08
10.30
11.33
12.05
12.35
12.02
10.83
8.58
5.22
0.88
-4.08
-9.25
-14.20
-18.65
-22.57
-26.22
-30.05
-34.50
-39.79
-45.60
-51.00
-54.63
-55.02
-51.13
-42.76
-30.70
-16.54
-2.20
10.57
20.63
27.52
31.30
32.34
31.07
27.95
23.49
18.32
13.17
8.71
5.43
3.52
2.92
3.40
4.62
6.22
7.82
9.03
9.53
9.15
7.88
5.93
3.59
1.19
-1.02
-2.97
-4.79
-6.77
-9.41
-13.23
-18.65
-25.73
-33.94
-42.15
-48.73
-51.93
-50.39
-43.49
-31.60
-15.99
1.46
18.63
33.58
44.78
51.31
52.87
49.79
42.94
33.59
23.20
13.18
4.69
-1.49
-5.00
-5.89
-4.52
-1.45
2.64
7.04
11.04
13.93
15.07
14.01
10.66
5.34
-1.21
-8.08
-14.39
-19.65
-23.79
-27.18
-30.39
-33.97
-38.23
-43.04
-47.81
-51.58
-53.13
-51.37
-45.66
-36.06
-23.36
-9.04
5.11
17.38
26.50
31.87
33.52
32.07
28.33
23.14
17.25
11.30
5.86
1.53
-1.23
-2.19
-1.55
0.21
2.39
4.43
5.99
6.97
7.33
6.93
5.54
2.95
-0.79
-5.32
-10.01
-14.29
-17.82
-20.69
-23.29
-26.16
-29.71
-34.04
-38.85
-43.44
-46.83
-47.88
-45.58
-39.33
-29.20
-16.05
-1.38
12.98
25.39
34.74
40.55
42.92
42.29
39.17
34.11
27.74
20.78
14.13
8.64
4.95
3.24
3.22
4.28
5.69
6.89
7.59
7.71
7.34
6.48
5.12
3.22
0.79
-2.11
-5.36
-8.98
-13.12
-18.07
-24.05
-31.08
-38.74
-46.12
-51.92
-54.66
-53.01
-46.14
-34.08
-17.80
0.82
19.45
35.78
48.11
55.68
58.63
57.77
54.21
49.09
43.39
37.98
33.54
30.54
29.10
28.90
29.23
29.18
27.95
25.08
20.54
14.66
7.84
0.40
-7.50
-15.84
-24.55
-33.40
-41.92
-49.61
-56.08
-61.23
-65.31
-68.76
-72.14
-75.82
-79.87
-83.90
-87.06
-88.13
-85.85
-79.19
-67.88
-52.53
-34.58
-15.95
1.52
16.49
28.35
37.12
43.17
46.83
48.39
48.12
46.39
43.86
41.31
39.38
38.42
38.30
38.62
38.98
39.14
39.12
38.96
38.56
37.60
35.60
32.26
27.67
22.33
16.96
12.18
8.32
5.26
2.64
-0.02
-3.18
-7.16
-12.11
-17.86
-23.80
-28.87
-31.71
-31.03
-26.12
-17.14
-5.23
7.90
20.41
30.88
38.50
43.02
44.54
43.32
39.66
34.03
27.13
19.93
13.48
8.62
5.76
4.81
5.31
6.65
8.34
10.03
11.50
12.50
12.72
11.84
9.69
6.34
2.14
-2.39
-6.81
-10.85
-14.50
-17.94
-21.45
-25.37
-29.99
-35.41
-41.41
-47.27
-51.82
-53.63
-51.50
-44.92
-34.24
-20.64
-5.77
8.69
21.39
31.39
38.17
41.56
41.69
39.05
34.39
28.69
22.95
18.00
14.38
12.38
12.01
13.04
15.07
17.55
19.84
21.43
21.97
21.37
19.77
17.41
14.49
11.13
7.33
3.07
-1.72
-7.03
-12.89
-19.20
-25.75
-32.05
-37.27
-40.35
-40.23
-36.21
-28.26
-17.12
-4.23
8.73
20.20
29.07
34.84
37.44
37.12
34.24
29.30
22.95
16.02
9.46
4.10
0.49
-1.21
-1.27
-0.18
1.47
3.17
4.51
5.21
5.09
4.06
2.17
-0.48
-3.67
-7.24
-11.04
-15.03
-19.26
-23.87
-28.99
-34.63
-40.53
-46.03
-50.06
-51.37
-48.89
-42.11
-31.38
-17.85
-3.24
10.62
22.29
30.90
36.22
38.46
38.06
35.51
31.29
25.89
19.91
14.03
8.97
5.30
3.31
2.87
3.55
4.66
5.56
5.78
5.09
3.52
1.20
-1.68
-4.95
-8.45
-12.09
-15.83
-19.73
-23.93
-28.60
-33.94
-39.95
-46.32
-52.34
-56.94
-58.82
-56.87
-50.48
-39.85
-26.03
-10.74
4.10
16.83
26.38
32.44
35.25
35.33
33.28
29.58
24.72
19.28
13.95
9.54
6.77
6.01
7.18
9.71
12.84
15.76
17.94
19.14
19.44
19.03
18.04
16.56
14.54
11.90
8.58
4.60
-0.05
-5.36
-11.28
-17.55
-23.61
-28.48
-30.99
-30.09
-25.20
-16.53
-5.10
7.55
19.77
30.12
37.71
42.14
43.42
41.87
38.02
32.56
26.30
20.05
14.53
10.29
7.60
6.50
6.76
7.91
9.39
10.63
11.17
10.78
9.46
7.35
4.60
1.35
-2.31
-6.33
-10.60
-15.15
-20.09
-25.68
-32.08
-39.15
-46.15
-51.84
-54.69
-53.40
-47.37
-36.95
-23.41
-8.59
5.61
17.67
26.65
32.22
34.56
34.07
31.31
26.90
21.52
15.90
10.75
6.66
4.03
2.97
3.34
4.75
6.68
8.54
9.76
9.91
8.77
6.33
2.81
-1.48
-6.22
-11.21
-16.29
-21.41
-26.51
-31.58
-36.69
-41.97
-47.46
-52.88
-57.47
-59.96
-58.94
-53.42
-43.30
-29.61
-14.23
0.72
13.53
23.30
29.98
34.03
36.10
36.75
36.42
35.54
34.58
34.05
34.28
35.26
36.60
37.68
37.82
36.65
34.17
30.74
26.89
23.09
19.57
16.35
13.30
10.27
7.21
4.14
1.14
-1.77
-4.65
-7.70
-11.23
-15.55
-20.94
-27.46
-34.76
-42.06
-48.11
-51.47
-50.89
-45.76
-36.28
-23.51
-9.05
5.35
18.21
28.53
35.81
40.01
41.31
40.07
36.73
31.96
26.51
21.29
17.14
14.65
13.95
14.73
16.29
17.85
18.86
19.16
18.88
18.27
17.44
16.21
14.19
11.03
6.66
1.34
-4.33
-9.71
-14.31
-17.99
-20.91
-23.42
-25.97
-28.91
-32.52
-36.83
-41.60
-46.19
-49.56
-50.43
-47.71
-40.91
-30.36
-17.29
-3.43
9.49
20.20
28.06
32.96
35.08
34.71
32.19
27.99
22.82
17.60
13.28
10.58
9.77
10.64
12.60
15.02
17.39
19.44
21.11
22.35
23.01
22.75
21.23
18.28
14.08
9.13
4.12
-0.40
-4.17
-7.28
-10.10
-13.03
-16.37
-20.25
-24.51
-28.73
-32.12
-33.65
-32.25
-27.18
-18.39
-6.64
6.64
19.74
31.12
39.74
45.08
47.06
45.86
41.84
35.57
27.86
19.77
12.38
6.64
3.06
1.70
2.16
3.79
5.84
7.63
8.70
8.73
7.66
5.52
2.45
-1.36
-5.70
-10.26
-14.69
-18.60
-21.61
-23.57
-24.58
-25.12
-25.89
-27.68
-31.07
-36.29
-43.02
-50.41
-57.15
-61.71
-62.72
-59.35
-51.57
-40.16
-26.52
-12.23
1.36
13.35
23.21
30.71
35.78
38.39
38.74
37.29
34.77
32.06
29.97
29.05
29.47
31.14
33.72
36.82
40.09
43.23
45.96
47.97
48.84
48.15
45.54
40.91
34.47
26.80
18.70
10.94
4.02
-2.03
-7.64
-13.48
-20.18
-27.98
-36.53
-44.92
-51.82
-55.87
-56.02
-51.79
-43.42
-31.77
-18.22
-4.34
8.41
18.89
26.46
30.99
32.75
32.23
30.06
26.94
23.54
20.56
18.53
17.76
18.21
19.52
21.08
22.28
22.66
21.99
20.22
17.32
13.22
7.73
0.63
-8.05
-18.02
-28.58
-38.85
-47.99
-55.50
-61.38
-66.10
-70.42
-75.06
-80.39
-86.21
-91.71
-95.64
-96.64
-93.69
-86.44
-75.40
-61.78
-47.13
-32.92
-20.23
-9.71
-1.59
4.01
7.18
8.09
7.18
5.11
2.68
0.71
-0.26
0.07
1.68
4.34
7.74
11.53
15.36
18.84
21.59
23.28
23.79
23.15
21.56
19.33
16.75
14.02
11.25
8.43
5.48
2.19
-1.64
-6.09
-10.92
-15.37
-18.31
-18.47
-14.97
-7.68
2.58
14.27
25.62
35.17
42.06
46.16
47.80
47.50
45.71
42.76
38.91
34.52
30.07
26.06
22.87
20.56
18.85
17.26
15.30
12.66
9.36
5.56
1.55
-2.50
-6.53
-10.61
-14.81
-19.18
-23.75
-28.52
-33.52
-38.84
-44.63
-50.95
-57.60
-63.92
-68.82
-70.87
-68.76
-61.74
-49.94
-34.46
-17.03
0.42
16.30
29.64
40.14
47.91
53.26
56.44
57.63
56.94
54.56
50.80
46.15
41.26
36.83
33.49
31.72
31.68
33.18
35.75
38.74
41.41
43.04
42.94
40.50
35.29
27.18
16.51
4.08
-9.01
-21.70
-33.25
-43.42
-52.27
-59.82
-65.74
-69.21
-69.22
-65.06
-56.69
-44.96
-31.37
-17.63
-5.23
4.94
12.50
17.45
19.99
20.35
18.84
15.92
12.24
8.56
5.62
3.98
3.90
5.25
7.60
10.33
12.81
14.54
15.28
15.02
13.90
12.17
10.03
7.64
5.10
2.47
-0.25
-3.16
-6.48
-10.45
-15.18
-20.39
-25.32
-28.78
-29.51
-26.61
-19.90
-10.04
1.68
13.72
24.74
33.79
40.39
44.34
45.56
44.01
39.79
33.29
25.28
16.86
9.28
3.64
0.67
0.57
2.96
7.04
11.74
15.91
18.58
19.11
17.23
13.04
6.85
-0.90
-9.70
-18.92
-27.90
-35.96
-42.54
-47.30
-50.01
-50.42
-48.05
-42.29
-32.67
-19.29
-3.15
13.90
29.51
41.50
48.41
49.81
46.24
38.88
29.16
18.42
7.86
-1.52
-8.87
-13.47
-14.90
-13.11
-8.56
-2.13
4.96
11.48
16.35
18.84
18.61
15.66
10.27
2.92
-5.80
-15.22
-24.77
-34.00
-42.66
-50.65
-57.87
-64.06
-68.69
-70.95
-69.96
-65.04
-56.05
-43.58
-28.90
-13.73
0.19
11.54
19.60
24.31
26.08
25.45
23.00
19.26
14.81
10.32
6.56
4.16
3.50
4.50
6.69
9.38
11.90
13.82
14.99
15.52
15.62
15.49
15.18
14.57
13.37
11.23
7.87
3.13
-2.91
-10.00
-17.62
-24.92
-30.82
-34.05
-33.48
-28.43
-19.00
-6.18
8.37
22.73
35.17
44.51
50.24
52.38
51.29
47.52
41.65
34.37
26.40
18.54
11.53
5.97
2.21
0.31
-0.03
0.66
1.71
2.49
2.57
1.82
0.38
-1.51
-3.65
-5.98
-8.66
-11.87
-15.75
-20.27
-25.33
-30.78
-36.42
-41.89
-46.55
-49.43
-49.41
-45.56
-37.57
-25.98
-12.16
2.08
14.97
25.19
32.05
35.46
35.70
33.31
28.87
23.10
16.77
10.77
5.91
2.82
1.76
2.58
4.74
7.51
10.14
12.08
13.01
12.88
11.84
10.09
7.83
5.14
1.99
-1.75
-6.30
-11.81
-18.20
-25.07
-31.62
-36.70
-39.10
-37.78
-32.22
-22.58
-9.80
4.66
19.07
31.75
41.47
47.57
49.97
49.03
45.38
39.77
33.03
26.07
19.81
15.04
12.26
11.51
12.39
14.13
15.92
17.11
17.39
16.76
15.36
13.30
10.59
7.13
2.84
-2.31
-8.24
-14.86
-22.01
-29.42
-36.57
-42.54
-46.11
-46.09
-41.76
-33.20
-21.43
-8.12
4.93
16.24
24.93
30.67
33.50
33.58
31.18
26.73
20.85
14.43
8.42
3.59
0.44
-0.94
-0.82
0.26
1.66
2.72
2.93
2.02
0.03
-2.71
-5.80
-8.93
-12.05
-15.38
-19.31
-24.21
-30.31
-37.53
-45.48
-53.30
-59.79
-63.51
-63.11
-57.77
-47.52
-33.37
-17.08
-0.65
14.16
26.16
34.85
40.26
42.70
42.56
40.29
36.36
31.39
26.08
21.18
17.34
14.99
14.19
14.67
15.87
17.15
17.92
17.82
16.70
14.61
11.74
8.32
4.60
0.78
-3.06
-7.02
-11.41
-16.64
-23.08
-30.78
-39.27
-47.50
-53.91
-56.82
-54.92
-47.67
-35.63
-20.27
-3.64
12.16
25.48
35.35
41.42
43.88
43.18
39.98
35.10
29.52
24.22
20.02
17.37
16.23
16.21
16.72
17.27
17.56
17.56
17.32
16.85
15.99
14.42
11.82
7.97
2.97
-2.73
-8.54
-13.87
-18.41
-22.21
-25.64
-29.26
-33.52
-38.64
-44.43
-50.24
-55.02
-57.49
-56.41
-50.94
-40.98
-27.32
-11.51
4.53
19.00
30.64
38.87
43.72
45.55
44.84
42.08
37.79
32.63
27.38
22.92
19.93
18.77
19.32
21.07
23.38
25.62
27.38
28.42
28.61
27.82
25.86
22.68
18.42
13.56
8.76
4.65
1.59
-0.53
-2.17
-4.02
-6.80
-11.03
-16.85
-23.93
-31.38
-37.87
-41.89
-42.14
-38.02
-29.74
-18.26
-4.98
8.74
21.77
33.31
42.78
49.63
53.41
53.81
50.84
44.98
37.08
28.26
19.64
12.19
6.56
3.00
1.51
1.83
3.60
6.37
9.63
12.76
15.11
15.99
14.88
11.55
6.16
-0.75
-8.38
-15.88
-22.58
-28.14
-32.69
-36.73
-40.98
-46.10
-52.30
-59.21
-65.72
-70.27
-71.19
-67.25
-58.09
-44.42
-27.81
-10.35
5.93
19.41
29.11
34.69
36.31
34.53
30.17
24.30
18.13
12.81
9.23
7.81
8.38
10.29
12.59
14.38
15.10
14.59
13.05
10.91
8.52
6.08
3.54
0.77
-2.38
-5.89
-9.57
-13.09
-16.14
-18.54
-20.29
-21.59
-22.71
-23.94
-25.51
-27.52
-29.92
-32.41
-34.33
-34.75
-32.65
-27.31
-18.61
-7.28
5.31
17.57
28.16
36.30
41.84
45.04
46.21
45.64
43.61
40.47
36.86
33.46
30.91
29.49
29.07
29.22
29.42
29.31
28.73
27.76
26.52
25.09
23.42
21.35
18.69
15.32
11.27
6.71
1.99
-2.51
-6.45
-9.66
-12.22
-14.43
-16.76
-19.74
-23.81
-29.22
-35.78
-42.85
-49.27
-53.58
-54.44
-50.96
-43.05
-31.52
-17.78
-3.53
9.65
20.61
28.67
33.66
35.67
35.05
32.27
27.95
22.84
17.74
13.41
10.43
9.02
9.03
10.00
11.36
12.64
13.62
14.25
14.51
14.33
13.47
11.68
8.86
5.17
1.05
-2.92
-6.30
-8.92
-10.96
-12.88
-15.23
-18.46
-22.80
-28.08
-33.68
-38.59
-41.56
-41.35
-37.14
-28.75
-16.77
-2.51
12.33
26.04
37.25
45.13
49.38
50.19
48.07
43.65
37.71
31.03
24.47
18.79
14.53
11.98
11.07
11.45
12.65
14.18
15.58
16.47
16.49
15.45
13.29
10.16
6.31
2.01
-2.60
-7.50
-12.75
-18.43
-24.61
-31.30
-38.44
-45.67
-52.23
-56.88
-58.17
-54.92
-46.76
-34.43
-19.64
-4.55
8.92
19.51
26.77
30.74
31.73
30.04
26.07
20.36
13.68
7.02
1.23
-3.04
-5.58
-6.54
-6.27
-5.24
-3.92
-2.71
-1.93
-1.82
-2.52
-4.10
-6.56
-9.83
-13.81
-18.34
-23.26
-28.43
-33.85
-39.67
-46.09
-53.15
-60.42
-66.92
-71.15
-71.56
-67.00
-57.22
-43.00
-26.03
-8.43
7.78
21.09
30.72
36.57
38.96
38.49
35.80
31.57
26.51
21.34
16.73
13.23
11.11
10.35
10.64
11.52
12.48
13.04
12.88
11.81
9.79
6.96
3.55
-0.22
-4.15
-8.18
-12.39
-16.93
-21.89
-27.42
-33.58
-40.35
-47.50
-54.44
-60.12
-63.16
-62.19
-56.33
-45.59
-30.98
-14.34
2.20
16.75
28.07
35.73
39.83
40.88
39.40
35.95
31.08
25.45
19.80
14.91
11.44
9.76
9.79
11.07
12.96
14.76
16.01
16.48
16.16
15.13
13.47
11.22
8.40
5.11
1.49
-2.33
-6.36
-10.78
-15.89
-21.86
-28.46
-34.87
-39.71
-41.37
-38.52
-30.66
-18.36
-3.19
12.75
27.47
39.53
48.25
53.58
55.78
55.22
52.27
47.40
41.35
35.00
29.31
25.00
22.42
21.48
21.79
22.76
23.81
24.42
24.19
22.94
20.67
17.56
13.89
9.92
5.76
1.39
-3.36
-8.77
-15.05
-22.28
-30.29
-38.47
-45.77
-50.82
-52.21
-48.92
-40.73
-28.35
-13.36
2.23
16.48
27.90
35.69
39.72
40.33
38.16
33.91
28.40
22.39
16.66
11.86
8.47
6.64
6.21
6.78
7.82
8.79
9.29
9.07
7.98
6.03
3.26
-0.22
-4.26
-8.75
-13.60
-18.75
-24.24
-30.18
-36.69
-43.82
-51.39
-58.74
-64.81
-68.17
-67.44
-61.78
-51.25
-36.90
-20.56
-4.30
10.02
21.15
28.56
32.30
32.82
30.74
26.79
21.75
16.38
11.41
7.44
4.86
3.86
4.30
5.87
8.06
10.29
12.05
12.95
12.81
11.61
9.47
6.57
3.17
-0.49
-4.24
-8.02
-11.94
-16.26
-21.27
-27.12
-33.69
-40.37
-46.09
-49.49
-49.23
-44.43
-35.00
-21.79
-6.43
9.05
22.81
33.57
40.84
44.80
46.03
45.15
42.68
39.01
34.51
29.66
25.09
21.46
19.29
18.74
19.57
21.16
22.77
23.75
23.75
22.75
20.94
18.55
15.73
12.51
8.83
4.68
0.03
-5.16
-10.99
-17.53
-24.64
-31.75
-37.74
-41.19
-40.76
-35.72
-26.26
-13.50
0.85
14.89
27.00
36.06
41.54
43.43
42.12
38.31
32.88
26.78
20.95
16.12
12.77
11.03
10.77
11.65
13.19
14.91
16.33
17.08
16.93
15.74
13.56
10.51
6.80
2.66
-1.68
-6.02
-10.23
-14.27
-18.32
-22.70
-27.84
-34.08
-41.34
-48.98
-55.77
-60.11
-60.56
-56.27
-47.34
-34.85
-20.56
-6.37
6.06
15.72
22.18
25.52
26.09
24.36
20.88
16.23
11.09
6.15
1.99
-1.00
-2.70
-3.31
-3.27
-3.13
-3.46
-4.66
-6.92
-10.16
-14.09
-18.30
-22.33
-25.76
-28.25
-29.58
-29.68
-28.70
-27.02
-25.29
-24.27
-24.73
-27.12
-31.41
-36.96
-42.56
-46.67
-47.78
-44.81
-37.43
-26.19
-12.37
2.34
16.21
27.82
36.30
41.31
42.99
41.79
38.29
33.21
27.32
21.45
16.40
12.81
11.01
10.91
12.08
13.90
15.78
17.32
18.33
18.75
18.52
17.56
15.71
12.92
9.26
4.96
0.35
-4.22
-8.60
-12.76
-16.91
-21.34
-26.31
-31.81
-37.38
-42.21
-45.14
-45.06
-41.23
-33.58
-22.78
-10.14
2.75
14.38
23.66
29.99
33.33
34.01
32.60
29.78
26.26
22.79
20.13
18.95
19.66
22.16
25.83
29.54
32.00
32.22
29.82
25.21
19.43
13.78
9.43
7.13
7.10
9.06
12.30
15.81
18.38
18.77
15.92
9.22
-1.18
-14.25
-28.05
-40.01
-47.54
-48.67
-42.70
-30.47
-14.13
3.45
19.48
31.91
39.75
42.87
41.76
37.19
30.03
21.36
12.39
4.46
-1.30
-4.28
-4.60
-2.99
-0.56
1.61
2.82
2.79
1.60
-0.47
-3.09
-5.97
-8.89
-11.71
-14.43
-17.16
-20.13
-23.62
-27.91
-33.18
-39.43
-46.35
-53.24
-58.99
-62.29
-61.95
-57.33
-48.63
-36.81
-23.35
-9.78
2.70
13.42
22.05
28.47
32.55
34.08
32.96
29.32
23.70
17.02
10.51
5.44
2.91
3.55
7.38
13.73
21.34
28.62
34.02
36.35
34.99
30.01
22.02
12.06
1.39
-8.73
-17.31
-23.74
-28.05
-30.77
-32.71
-34.63
-36.83
-39.02
-40.39
-39.91
-36.77
-30.63
-21.84
-11.29
-0.25
9.96
18.21
23.72
26.20
25.80
23.01
18.55
13.29
8.05
3.61
0.49
-1.04
-1.05
0.12
1.93
3.77
5.13
5.66
5.22
3.87
1.80
-0.68
-3.32
-5.97
-8.65
-11.53
-14.87
-18.89
-23.73
-29.37
-35.47
-41.38
-46.05
-48.25
-46.89
-41.41
-32.10
-20.07
-7.01
5.33
15.64
23.16
27.75
29.61
29.06
26.46
22.27
17.10
11.70
6.89
3.31
1.35
1.02
2.05
3.95
6.12
8.02
9.26
9.72
9.54
8.98
8.30
7.51
6.35
4.34
1.02
-3.84
-10.06
-17.03
-23.79
-29.15
-31.96
-31.27
-26.64
-18.34
-7.34
4.85
16.57
26.45
33.59
37.67
38.75
37.14
33.28
27.77
21.34
14.83
9.02
4.49
1.50
-0.02
-0.36
0.06
0.77
1.40
1.62
1.28
0.38
-1.00
-2.76
-4.91
-7.62
-11.16
-15.76
-21.44
-27.92
-34.60
-40.55
-44.65
-45.80
-43.12
-36.32
-25.81
-12.77
1.15
14.21
25.03
32.81
37.32
38.74
37.43
33.86
28.61
22.42
16.20
10.85
7.00
4.87
4.26
4.65
5.43
6.04
6.11
5.41
3.90
1.68
-1.05
-4.09
-7.36
-10.92
-15.03
-19.99
-25.94
-32.70
-39.63
-45.64
-49.39
-49.59
-45.38
-36.68
-24.29
-9.80
4.74
17.37
26.66
31.98
33.53
32.06
28.63
24.25
19.78
15.91
13.10
11.66
11.61
12.63
14.08
15.17
15.24
13.93
11.36
7.96
4.35
1.04
-1.69
-3.82
-5.55
-7.25
-9.35
-12.28
-16.38
-21.79
-28.27
-35.06
-40.96
-44.57
-44.63
-40.50
-32.32
-21.04
-8.14
4.76
16.28
25.46
31.82
35.23
35.73
33.61
29.32
23.62
17.49
12.04
8.22
6.57
7.11
9.33
12.39
15.35
17.52
18.46
18.16
16.84
14.89
12.64
10.29
7.85
5.11
1.78
-2.37
-7.42
-13.19
-19.19
-24.55
-28.22
-29.10
-26.34
-19.75
-9.94
1.74
13.56
23.86
31.52
36.12
37.81
37.04
34.34
30.20
25.13
19.77
14.84
11.04
8.79
8.12
8.66
9.77
10.79
11.19
10.71
9.32
7.19
4.59
1.79
-0.99
-3.71
-6.47
-9.53
-13.19
-17.70
-23.19
-29.56
-36.44
-43.14
-48.63
-51.78
-51.52
-47.21
-38.99
-27.82
-15.30
-3.20
7.02
14.61
19.56
22.42
24.01
25.02
25.91
26.82
27.65
28.09
27.78
26.37
23.70
19.90
15.46
11.28
8.41
7.78
9.91
14.69
21.30
28.34
34.13
37.09
36.07
30.63
21.03
8.18
-6.53
-21.47
-34.87
-44.93
-50.16
-49.55
-42.90
-30.93
-15.25
1.99
18.51
32.31
42.01
46.98
47.28
43.53
36.66
27.72
17.75
7.65
-1.83
-10.04
-16.44
-20.60
-22.28
-21.45
-18.34
-13.41
-7.35
-0.99
4.78
9.17
11.62
11.94
10.32
7.22
3.23
-1.10
-5.48
-9.79
-14.05
-18.27
-22.26
-25.57
-27.46
-27.10
-23.86
-17.62
-8.95
0.95
10.56
18.54
24.02
26.85
27.48
26.72
25.39
24.11
23.19
22.68
22.34
21.80
20.65
18.54
15.31
11.05
6.06
0.80
-4.27
-8.71
-12.21
-14.61
-15.94
-16.47
-16.71
-17.26
-18.66
-21.16
-24.68
-28.81
-33.09
-37.16
-40.85
-44.10
-46.69
-48.10
-47.56
-44.30
-37.95
-28.70
-17.44
-5.45
5.91
15.61
23.03
28.00
30.59
30.98
29.38
26.11
21.65
16.65
11.86
7.97
5.44
4.41
4.67
5.81
7.28
8.55
9.19
8.94
7.72
5.62
2.87
-0.27
-3.63
-7.14
-10.85
-14.88
-19.33
-24.23
-29.51
-34.83
-39.61
-42.94
-43.75
-41.14
-34.71
-24.81
-12.59
0.30
12.17
21.71
28.24
31.65
32.27
30.58
27.16
22.63
17.71
13.13
9.53
7.26
6.28
6.16
6.21
5.75
4.29
1.73
-1.59
-5.01
-7.68
-8.87
-8.25
-6.06
-3.07
-0.39
0.85
-0.15
-3.66
-9.37
-16.42
-23.54
-29.23
-32.02
-30.79
-25.13
-15.53
-3.34
9.52
21.13
30.03
35.47
37.45
36.41
33.01
27.94
21.85
15.52
9.70
5.12
2.29
1.27
1.71
2.94
4.14
4.69
4.30
3.02
1.16
-0.92
-3.03
-5.25
-7.89
-11.32
-15.81
-21.41
-27.88
-34.75
-41.29
-46.61
-49.67
-49.43
-45.13
-36.61
-24.60
-10.64
3.27
15.32
24.33
30.06
32.92
33.57
32.52
30.01
26.17
21.29
16.01
11.14
7.47
5.37
4.68
4.82
5.08
4.94
4.20
2.98
1.53
0.03
-1.50
-3.25
-5.50
-8.49
-12.36
-17.13
-22.75
-29.10
-35.87
-42.46
-47.89
-50.88
-50.26
-45.33
-36.23
-23.94
-10.11
3.51
15.43
24.68
30.88
34.03
34.38
32.33
28.39
23.19
17.46
11.94
7.27
3.92
2.13
1.85
2.76
4.26
5.62
6.17
5.50
3.63
0.88
-2.32
-5.69
-9.28
-13.34
-18.17
-23.93
-30.51
-37.61
-44.77
-51.36
-56.52
-59.17
-58.16
-52.71
-42.75
-29.19
-13.73
1.66
15.30
26.26
34.44
40.30
44.49
47.46
49.34
50.02
49.30
47.00
43.12
37.76
31.20
23.89
16.52
10.00
5.34
3.42
4.72
9.14
15.99
24.00
31.61
37.13
39.05
36.27
28.19
15.02
-2.25
-21.78
-40.97
-56.91
-66.77
-68.52
-61.47
-46.57
-26.22
-3.72
17.57
35.02
47.13
53.50
54.51
50.98
43.91
34.52
24.22
14.57
6.96
2.29
0.70
1.54
3.73
6.10
7.80
8.44
8.10
7.06
5.68
4.17
2.53
0.57
-1.98
-5.40
-9.82
-15.22
-21.43
-28.18
-35.12
-41.74
-47.30
-50.81
-51.20
-47.66
-39.98
-28.82
-15.59
-2.07
10.01
19.46
25.69
28.73
28.87
26.58
22.30
16.53
9.89
3.13
-2.84
-7.17
-9.20
-8.66
-5.76
-1.21
3.91
8.38
11.06
11.20
8.61
3.74
-2.42
-8.57
-13.42
-15.96
-15.76
-13.13
-9.09
-5.08
-2.66
-2.95
-6.27
-12.00
-18.78
-24.83
-28.46
-28.43
-24.09
-15.49
-3.27
11.37
26.79
41.08
52.38
59.23
60.93
57.57
49.97
39.36
27.16
14.84
3.78
-4.78
-9.97
-11.51
-9.94
-6.45
-2.54
0.40
1.56
0.81
-1.50
-4.80
-8.64
-12.77
-17.14
-21.79
-26.87
-32.43
-38.33
-44.02
-48.51
-50.49
-48.77
-42.81
-32.95
-20.45
-7.01
5.71
16.53
24.78
30.19
32.59
31.92
28.33
22.42
15.26
8.24
2.65
-0.66
-1.52
-0.38
1.94
4.53
6.67
7.99
8.43
8.15
7.35
6.12
4.40
2.01
-1.24
-5.49
-10.75
-16.97
-23.91
-31.03
-37.39
-41.65
-42.42
-38.74
-30.49
-18.61
-4.80
8.94
20.92
30.07
35.91
38.41
37.78
34.43
29.01
22.50
16.12
11.05
8.11
7.52
8.88
11.37
14.03
16.08
17.11
17.04
16.03
14.25
11.69
8.24
3.63
-2.33
-9.64
-18.03
-26.91
-35.38
-42.32
-46.47
-46.74
-42.44
-33.58
-21.01
-6.27
8.74
22.19
32.72
39.57
42.59
42.00
38.33
32.31
24.90
17.17
10.19
4.71
0.99
-1.25
-2.63
-3.82
-5.22
-6.90
-8.66
-10.27
-11.64
-12.91
-14.47
-16.85
-20.58
-26.03
-33.19
-41.45
-49.53
-55.68
-58.06
-55.35
-47.15
-34.23
-18.26
-1.37
14.39
27.46
36.94
42.48
44.07
42.00
36.76
29.14
20.25
11.43
3.95
-1.23
-3.78
-4.01
-2.80
-1.23
-0.26
-0.46
-1.91
-4.38
-7.42
-10.66
-13.85
-17.02
-20.39
-24.33
-29.20
-35.13
-41.78
-48.29
-53.35
-55.53
-53.75
-47.59
-37.49
-24.60
-10.43
3.49
15.90
25.91
32.98
36.90
37.70
35.69
31.47
25.91
20.07
15.03
11.69
10.52
11.39
13.67
16.39
18.66
19.95
20.13
19.35
17.78
15.41
12.03
7.37
1.33
-5.94
-14.08
-22.70
-31.33
-39.36
-45.92
-49.84
-49.94
-45.42
-36.31
-23.58
-8.92
5.75
18.78
29.09
36.25
40.28
41.41
40.05
36.71
32.10
27.16
22.86
20.07
19.25
20.38
22.90
25.96
28.57
30.01
29.88
28.27
25.60
22.42
19.17
16.02
12.80
9.08
4.36
-1.76
-9.30
-17.79
-26.20
-33.10
-36.96
-36.56
-31.42
-21.96
-9.47
4.21
17.20
27.96
35.52
39.53
40.09
37.60
32.69
26.14
18.93
12.10
6.69
3.47
2.78
4.44
7.75
11.77
15.48
18.18
19.54
19.66
18.77
17.09
14.59
11.10
6.43
0.61
-6.05
-13.06
-19.91
-26.22
-31.66
-35.82
-38.07
-37.68
-34.05
-27.01
-17.11
-5.53
6.31
17.07
25.92
32.60
37.32
40.52
42.58
43.66
43.72
42.63
40.31
36.89
32.75
28.45
24.55
21.45
19.22
17.68
16.46
15.13
13.38
11.07
8.17
4.76
1.01
-2.94
-6.98
-11.03
-15.15
-19.50
-24.33
-29.94
-36.41
-43.48
-50.38
-55.91
-58.68
-57.55
-51.97
-42.26
-29.54
-15.42
-1.57
10.65
20.42
27.44
31.76
33.61
33.30
31.21
27.87
23.96
20.20
17.23
15.37
14.56
14.45
14.59
14.68
14.64
14.56
14.53
14.40
13.88
12.55
10.14
6.63
2.36
-2.10
-6.13
-9.28
-11.40
-12.75
-13.93
-15.75
-18.91
-23.73
-29.90
-36.43
-41.92
-44.87
-44.10
-39.04
-29.91
-17.59
-3.46
10.92
24.07
34.82
42.40
46.49
47.06
44.39
39.07
32.00
24.42
17.72
13.12
11.33
12.35
15.53
19.86
24.37
28.33
31.28
32.88
32.83
30.83
26.79
20.96
13.97
6.73
0.13
-5.26
-9.28
-12.22
-14.63
-17.21
-20.57
-25.05
-30.51
-36.21
-40.91
-43.09
-41.39
-35.15
-24.67
-11.28
2.96
15.83
25.48
30.91
32.04
29.60
24.78
18.93
13.26
8.72
5.98
5.37
6.88
10.02
13.87
17.28
19.08
18.56
15.70
11.08
5.74
0.71
-3.28
-5.93
-7.28
-7.65
-7.40
-6.98
-6.83
-7.36
-8.82
-11.37
-14.96
-19.50
-24.89
-30.98
-37.44
-43.57
-48.33
-50.52
-49.19
-44.00
-35.44
-24.65
-13.11
-2.20
7.05
14.14
18.88
21.43
22.05
21.11
19.09
16.46
13.71
11.30
9.62
8.94
9.45
11.16
13.83
17.03
20.18
22.63
23.87
23.50
21.32
17.35
11.81
5.24
-1.60
-7.76
-12.40
-15.03
-15.72
-15.11
-14.14
-13.73
-14.32
-15.74
-17.23
-17.74
-16.34
-12.56
-6.54
1.10
9.48
17.73
25.17
31.24
35.50
37.61
37.35
34.79
30.41
25.02
19.58
14.84
11.22
8.67
6.86
5.40
3.98
2.43
0.68
-1.25
-3.37
-5.62
-7.88
-10.03
-12.01
-13.83
-15.61
-17.53
-19.74
-22.35
-25.53
-29.42
-34.14
-39.54
-45.06
-49.63
-51.95
-50.90
-45.98
-37.54
-26.70
-14.89
-3.55
6.33
14.19
19.82
23.19
24.41
23.75
21.61
18.59
15.31
12.35
10.14
8.94
8.82
9.66
11.16
12.84
14.17
14.77
14.50
13.46
11.91
10.09
8.04
5.61
2.59
-1.24
-5.92
-11.39
-17.60
-24.52
-32.20
-40.54
-49.18
-57.34
-63.90
-67.62
-67.48
-63.02
-54.45
-42.64
-28.94
-14.93
-2.10
8.32
15.58
19.47
20.29
18.71
15.60
11.83
8.18
5.29
3.59
3.29
4.31
6.29
8.62
10.67
11.97
12.26
11.52
9.89
7.56
4.72
1.64
-1.35
-3.96
-6.04
-7.69
-9.33
-11.44
-14.48
-18.57
-23.51
-28.78
-33.63
-37.22
-38.65
-37.18
-32.30
-23.98
-12.82
-0.01
12.92
24.48
33.52
39.44
42.13
41.73
38.55
32.99
25.62
17.30
9.15
2.37
-2.05
-3.59
-2.39
0.95
5.47
10.25
14.48
17.60
19.19
18.96
16.66
12.21
5.76
-2.17
-10.74
-19.00
-26.13
-31.71
-35.74
-38.48
-40.14
-40.67
-39.74
-36.94
-32.05
-25.21
-16.96
-8.03
0.84
9.07
16.22
21.94
25.96
28.11
28.45
27.24
24.98
22.32
19.87
18.17
17.57
18.19
19.94
22.53
25.44
28.14
30.07
30.83
30.22
28.23
25.03
20.93
16.25
11.29
6.24
1.11
-4.29
-10.22
-16.94
-24.41
-32.25
-39.61
-45.41
-48.56
-48.28
-44.43
-37.45
-28.36
-18.44
-8.95
-0.89
5.17
9.04
10.91
11.14
10.13
8.22
5.63
2.56
-0.75
-3.91
-6.46
-7.92
-8.06
-6.95
-4.98
-2.73
-0.78
0.43
0.66
-0.15
-1.92
-4.44
-7.44
-10.56
-13.52
-16.14
-18.54
-21.07
-24.18
-28.18
-32.93
-37.72
-41.35
-42.45
-39.94
-33.44
-23.49
-11.37
1.22
12.69
21.82
28.05
31.35
32.01
30.49
27.26
22.74
17.40
11.74
6.34
1.75
-1.56
-3.35
-3.65
-2.67
-0.77
1.67
4.26
6.67
8.57
9.63
9.58
8.21
5.41
1.22
-4.21
-10.54
-17.29
-23.80
-29.29
-32.89
-33.79
-31.39
-25.54
-16.64
-5.62
6.19
17.37
26.76
33.70
37.98
39.77
39.35
37.00
32.95
27.60
21.55
15.64
10.68
7.25
5.44
4.85
4.82
4.75
4.24
3.19
1.67
-0.26
-2.53
-5.06
-7.70
-10.22
-12.45
-14.42
-16.39
-18.75
-21.76
-25.22
-28.42
-30.21
-29.38
-25.05
-16.99
-5.74
7.56
21.41
34.37
45.27
53.40
58.44
60.40
59.35
55.52
49.25
41.17
32.22
23.56
16.28
11.01
7.74
5.85
4.40
2.57
-0.00
-3.15
-6.42
-9.34
-11.76
-13.86
-16.03
-18.69
-22.09
-26.37
-31.61
-37.82
-44.87
-52.24
-58.90
-63.39
-64.24
-60.44
-51.89
-39.50
-24.94
-10.14
3.21
14.01
21.75
26.44
28.36
27.89
25.46
21.56
16.77
11.78
7.26
3.82
1.81
1.26
1.85
3.06
4.30
5.12
5.30
4.83
3.84
2.42
0.57
-1.81
-4.85
-8.61
-13.07
-18.20
-23.92
-30.14
-36.53
-42.42
-46.69
-47.95
-44.98
-37.23
-25.19
-10.40
4.95
18.64
29.02
35.31
37.56
36.38
32.57
26.97
20.36
13.56
7.46
2.87
0.43
0.30
2.15
5.27
8.73
11.65
13.35
13.46
11.86
8.73
4.52
-0.16
-4.69
-8.59
-11.76
-14.46
-17.27
-20.81
-25.54
-31.45
-38.02
-44.21
-48.61
-49.74
-46.42
-38.19
-25.52
-9.84
6.79
22.25
34.87
43.75
48.71
50.03
48.17
43.59
36.84
28.68
20.19
12.65
7.21
4.57
4.78
7.26
11.06
15.24
19.03
21.89
23.45
23.46
21.70
18.12
12.87
6.35
-0.91
-8.40
-15.76
-22.72
-28.95
-33.85
-36.57
-36.16
-31.96
-23.96
-12.93
-0.30
12.24
23.16
31.48
36.84
39.40
39.53
37.63
34.00
28.90
22.73
16.16
10.07
5.39
2.78
2.31
3.46
5.34
6.96
7.69
7.33
6.12
4.48
2.77
1.10
-0.67
-2.93
-6.14
-10.76
-17.15
-25.36
-34.92
-44.81
-53.42
-58.91
-59.62
-54.61
-43.98
-28.89
-11.29
6.53
22.52
35.18
43.60
47.48
46.86
42.19
34.28
24.44
14.33
5.64
-0.26
-2.80
-2.22
0.52
4.20
7.72
10.33
11.72
11.84
10.79
8.68
5.62
1.70
-3.02
-8.52
-14.81
-21.96
-29.95
-38.59
-47.38
-55.37
-61.27
-63.68
-61.52
-54.43
-43.02
-28.71
-13.37
1.23
13.83
23.77
30.88
35.22
36.88
36.03
33.03
28.59
23.66
19.29
16.26
14.89
14.97
15.92
17.10
18.03
18.52
18.69
18.82
19.08
19.44
19.59
19.05
17.29
13.90
8.60
1.27
-8.08
-19.11
-30.97
-42.15
-50.64
-54.37
-51.89
-42.96
-28.77
-11.61
5.80
21.02
32.49
39.54
42.36
41.57
37.99
32.47
25.82
18.86
12.35
6.99
3.27
1.47
1.51
3.04
5.48
8.17
10.52
12.13
12.83
12.63
11.62
9.95
7.71
4.93
1.59
-2.37
-7.02
-12.40
-18.41
-24.70
-30.66
-35.36
-37.73
-36.76
-31.87
-23.14
-11.45
1.63
14.29
24.91
32.46
36.63
37.67
36.05
32.25
26.68
19.82
12.44
5.57
0.33
-2.52
-2.84
-1.26
1.20
3.49
4.95
5.46
5.27
4.75
4.12
3.34
2.21
0.44
-2.25
-6.10
-11.25
-17.60
-24.70
-31.55
-36.80
-38.98
-36.98
-30.43
-19.92
-6.87
6.83
19.37
29.36
36.08
39.42
39.67
37.41
33.26
27.91
22.10
16.55
11.94
8.67
6.77
5.92
5.51
4.98
3.98
2.53
0.89
-0.56
-1.60
-2.31
-3.07
-4.46
-7.12
-11.57
-17.96
-25.96
-34.64
-42.51
-47.89
-49.30
-45.95
-38.02
-26.58
-13.26
0.19
12.31
22.11
29.07
33.00
33.97
32.24
28.27
22.70
16.33
9.97
4.41
0.23
-2.27
-3.18
-3.03
-2.50
-2.27
-2.69
-3.70
-4.93
-6.04
-6.99
-8.14
-10.08
-13.42
-18.44
-25.00
-32.55
-40.21
-46.85
-51.26
-52.34
-49.33
-42.11
-31.26
-18.00
-3.85
9.68
21.37
30.44
36.48
39.43
39.52
37.24
33.28
28.43
23.47
19.00
15.41
12.77
10.87
9.29
7.52
5.20
2.23
-1.11
-4.34
-6.99
-8.89
-10.23
-11.59
-13.70
-17.24
-22.62
-29.82
-38.29
-46.90
-54.02
-57.90
-57.13
-51.20
-40.62
-26.94
-12.12
1.98
14.08
23.56
30.31
34.40
35.98
35.24
32.53
28.41
23.65
18.99
15.01
12.02
10.05
8.88
8.19
7.60
6.89
5.97
4.94
3.96
3.14
2.39
1.40
-0.23
-2.86
-6.67
-11.62
-17.38
-23.33
-28.60
-32.03
-32.40
-28.72
-20.66
-8.73
5.65
20.46
33.59
43.30
48.55
49.14
45.57
38.92
30.62
22.20
15.13
10.52
8.92
10.19
13.58
17.86
21.64
23.68
23.16
19.87
14.24
7.19
-0.06
-6.43
-11.24
-14.39
-16.40
-18.19
-20.62
-24.16
-28.58
-33.03
-36.20
-36.84
-34.02
-27.53
-17.88
-6.15
6.27
17.98
27.86
35.12
39.37
40.50
38.64
34.22
27.96
20.90
14.23
9.06
5.98
4.94
5.25
5.94
6.19
5.57
4.12
2.16
0.02
-2.15
-4.41
-6.97
-10.14
-14.20
-19.45
-25.97
-33.48
-41.15
-47.59
-51.20
-50.59
-45.15
-35.24
-22.17
-7.78
6.06
17.89
26.87
32.73
35.59
35.71
33.42
29.10
23.31
16.77
10.36
4.97
1.22
-0.69
-1.04
-0.45
0.36
0.82
0.73
0.13
-0.78
-1.90
-3.30
-5.22
-7.98
-11.82
-16.81
-22.89
-29.77
-36.97
-43.68
-48.85
-51.32
-50.06
-44.58
-35.15
-22.78
-8.99
4.58
16.51
25.91
32.35
35.84
36.60
35.00
31.52
26.81
21.66
16.92
13.33
11.27
10.65
10.96
11.53
11.79
11.53
10.87
10.13
9.56
9.13
8.62
7.60
5.68
2.55
-1.97
-7.88
-14.95
-22.49
-29.35
-34.08
-35.30
-32.16
-24.76
-14.11
-1.80
10.49
21.42
30.13
36.11
39.06
38.83
35.53
29.73
22.50
15.24
9.28
5.53
4.23
5.01
7.06
9.42
11.25
11.98
11.44
9.78
7.38
4.56
1.42
-2.26
-6.92
-12.92
-20.30
-28.50
-36.39
-42.44
-45.09
-43.16
-36.21
-24.73
-10.15
5.53
20.15
32.03
40.27
44.83
46.32
45.56
43.27
39.98
36.05
31.86
27.83
24.40
21.75
19.74
17.96
15.85
13.09
9.68
5.98
2.50
-0.31
-2.27
-3.54
-4.56
-5.97
-8.45
-12.51
-18.37
-25.77
-33.88
-41.42
-46.86
-48.79
-46.35
-39.45
-28.85
-15.95
-2.43
10.12
20.52
28.15
32.87
34.85
34.46
32.10
28.21
23.35
18.16
13.34
9.51
7.01
5.81
5.52
5.57
5.49
5.01
4.20
3.24
2.28
1.23
-0.21
-2.49
-5.97
-10.83
-17.01
-24.19
-31.86
-39.32
-45.63
-49.81
-50.91
-48.32
-42.02
-32.63
-21.26
-9.27
2.09
11.87
19.48
24.64
27.29
27.50
25.50
21.68
16.63
11.11
5.94
1.87
-0.63
-1.45
-0.93
0.29
1.46
1.99
1.61
0.42
-1.27
-3.17
-5.19
-7.45
-10.17
-13.47
-17.31
-21.51
-25.87
-30.19
-34.17
-37.14
-38.10
-35.87
-29.63
-19.42
-6.36
7.65
20.55
30.85
38.03
42.44
44.93
46.30
46.99
47.04
46.28
44.54
41.79
38.15
33.86
29.20
24.43
19.82
15.63
12.12
9.52
7.96
7.39
7.53
7.95
8.11
7.52
5.79
2.70
-1.85
-7.81
-14.99
-22.90
-30.69
-37.19
-41.15
-41.50
-37.78
-30.23
-19.82
-7.91
4.02
14.72
23.29
29.27
32.53
33.18
31.56
28.11
23.37
17.94
12.45
7.45
3.40
0.59
-0.98
-1.58
-1.69
-1.78
-2.19
-3.07
-4.39
-6.04
-7.98
-10.20
-12.75
-15.59
-18.59
-21.61
-24.63
-27.77
-31.31
-35.43
-40.03
-44.56
-47.97
-49.04
-46.72
-40.53
-30.78
-18.56
-5.46
6.83
17.05
24.48
29.07
31.11
31.04
29.25
26.11
22.08
17.80
14.05
11.54
10.67
11.38
13.15
15.29
17.14
18.29
18.63
18.26
17.36
16.12
14.58
12.74
10.46
7.56
3.84
-0.84
-6.51
-12.96
-19.72
-25.98
-30.66
-32.65
-31.06
-25.63
-16.92
-6.28
4.53
13.81
20.41
24.00
24.98
24.15
22.40
20.42
18.69
17.54
17.13
17.43
18.12
18.58
18.09
16.09
12.53
7.98
3.46
0.10
-1.29
-0.49
2.12
5.73
9.30
11.78
12.23
9.93
4.46
-4.13
-15.24
-27.76
-40.16
-50.71
-57.74
-59.90
-56.53
-47.78
-34.70
-19.10
-3.09
11.36
22.82
30.59
34.52
34.84
32.02
26.68
19.72
12.28
5.58
0.63
-2.01
-2.44
-1.24
0.75
2.73
4.13
4.69
4.41
3.51
2.30
1.09
0.11
-0.66
-1.47
-2.71
-4.78
-8.01
-12.55
-18.41
-25.47
-33.27
-40.99
-47.34
-50.80
-49.96
-44.13
-33.59
-19.66
-4.26
10.58
23.21
32.56
38.11
39.74
37.60
32.15
24.28
15.26
6.55
-0.46
-4.81
-6.19
-4.89
-1.69
2.37
6.29
9.18
10.44
9.82
7.37
3.49
-1.25
-6.26
-11.00
-15.13
-18.52
-21.34
-23.96
-26.90
-30.66
-35.43
-40.91
-46.22
-50.06
-51.07
-48.30
-41.52
-31.35
-19.10
-6.40
5.13
14.26
20.32
23.19
23.29
21.28
17.96
14.00
9.92
6.07
2.76
0.27
-1.13
-1.31
-0.39
1.26
3.09
4.56
5.28
5.12
4.20
2.69
0.83
-1.23
-3.37
-5.51
-7.67
-9.92
-12.46
-15.54
-19.34
-23.79
-28.40
-32.27
-34.30
-33.50
-29.34
-21.96
-12.09
-0.99
9.98
19.52
26.73
31.15
32.74
31.78
28.74
24.13
18.49
12.38
6.45
1.38
-2.21
-3.98
-4.03
-2.91
-1.39
-0.20
0.31
0.19
-0.23
-0.63
-0.91
-1.32
-2.24
-4.06
-6.97
-10.99
-16.00
-21.80
-27.98
-33.83
-38.30
-40.15
-38.31
-32.30
-22.52
-10.18
3.00
15.27
25.20
31.82
34.61
33.44
28.56
20.69
11.03
1.19
-7.24
-13.07
-15.84
-15.83
-13.83
-10.77
-7.48
-4.62
-2.66
-1.98
-2.76
-4.89
-7.93
-11.25
-14.32
-16.95
-19.43
-22.30
-26.10
-30.98
-36.58
-42.09
-46.47
-48.67
-47.88
-43.68
-36.12
-25.79
-13.70
-1.15
10.61
20.55
28.11
33.08
35.56
35.78
33.97
30.47
25.78
20.60
15.82
12.30
10.61
10.88
12.72
15.37
17.99
19.95
20.95
20.94
20.07
18.46
16.21
13.37
10.04
6.32
2.26
-2.16
-7.08
-12.50
-18.17
-23.35
-26.86
-27.42
-24.03
-16.45
-5.40
7.55
20.43
31.43
39.30
43.56
44.35
42.21
37.76
31.62
24.47
17.07
10.26
4.81
1.20
-0.51
-0.70
-0.02
0.90
1.56
1.71
1.27
0.31
-1.12
-2.92
-5.01
-7.32
-9.83
-12.55
-15.56
-18.92
-22.59
-26.33
-29.70
-32.01
-32.56
-30.75
-26.35
-19.61
-11.23
-2.18
6.51
14.05
20.03
24.38
27.27
28.87
29.20
28.15
25.57
21.58
16.61
11.35
6.52
2.57
-0.49
-2.85
-4.70
-5.93
-6.20
-5.13
-2.80
0.20
2.86
4.15
3.41
0.52
-4.18
-10.16
-16.74
-23.14
-28.43
-31.49
-31.35
-27.54
-20.33
-10.74
-0.18
9.98
18.70
25.41
29.87
32.02
31.93
29.80
25.96
20.94
15.36
9.86
4.99
1.17
-1.44
-2.91
-3.52
-3.62
-3.47
-3.09
-2.35
-1.05
0.79
2.82
4.47
5.13
4.37
2.09
-1.47
-5.86
-10.45
-14.54
-17.40
-18.37
-17.12
-13.70
-8.57
-2.35
4.40
11.35
18.38
25.38
32.00
37.59
41.25
42.13
39.69
33.83
25.04
14.21
2.57
-8.59
-18.04
-24.85
-28.52
-29.04
-26.84
-22.68
-17.55
-12.57
-8.86
-7.43
-9.05
-14.02
-22.12
-32.47
-43.65
-53.87
-61.29
-64.36
-62.18
-54.76
-43.03
-28.71
-13.84
-0.30
10.63
18.42
23.15
25.23
25.16
23.43
20.57
17.31
14.51
12.96
13.02
14.35
15.99
16.69
15.47
11.98
6.64
0.47
-5.37
-9.90
-12.63
-13.56
-13.17
-12.23
-11.61
-12.07
-14.04
-17.43
-21.60
-25.48
-27.87
-27.82
-24.99
-19.61
-12.45
-4.40
3.82
11.75
19.12
25.76
31.37
35.55
37.87
38.09
36.23
32.67
27.95
22.70
17.40
12.36
7.76
3.69
0.33
-2.11
-3.45
-3.70
-3.14
-2.36
-2.08
-2.93
-5.25
-9.08
-14.27
-20.51
-27.45
-34.59
-41.14
-46.07
-48.20
-46.55
-40.74
-31.18
-19.08
-6.13
5.95
15.88
22.99
27.20
28.80
28.19
25.70
21.67
16.60
11.24
6.53
3.29
1.91
2.18
3.46
4.89
5.87
6.19
6.00
5.54
4.95
4.15
2.95
1.13
-1.38
-4.69
-8.89
-14.08
-20.13
-26.44
-31.90
-35.02
-34.50
-29.65
-20.73
-8.84
4.39
17.28
28.34
36.37
40.55
40.54
36.65
29.92
21.97
14.53
9.03
6.21
6.05
7.97
11.01
14.11
16.18
16.37
14.26
10.10
4.86
-0.11
-3.53
-4.72
-3.88
-1.92
-0.16
0.13
-1.93
-6.66
-13.69
-21.96
-29.78
-35.16
-36.25
-31.93
-22.20
-8.27
7.78
23.58
37.02
46.63
51.63
51.92
47.85
40.31
30.56
20.24
11.10
4.64
1.76
2.51
6.07
10.98
15.58
18.38
18.46
15.64
10.39
3.64
-3.52
-10.18
-15.75
-20.04
-23.27
-25.92
-28.58
-31.73
-35.49
-39.42
-42.51
-43.43
-40.98
-34.62
-24.73
-12.44
0.73
13.40
24.63
33.99
41.24
46.23
48.66
48.31
45.14
39.49
32.08
23.84
15.77
8.75
3.44
0.13
-1.20
-0.87
0.60
2.71
4.97
6.94
8.15
8.02
5.99
1.62
-5.23
-14.26
-24.79
-35.81
-46.11
-54.39
-59.39
-60.07
-55.90
-47.05
-34.53
-19.94
-5.14
8.18
18.85
26.32
30.57
31.87
30.69
27.53
22.96
17.59
12.14
7.34
3.83
2.03
2.04
3.57
6.01
8.61
10.72
11.99
12.40
12.16
11.51
10.51
9.07
7.07
4.46
1.34
-2.16
-5.99
-10.18
-14.62
-18.93
-22.32
-23.81
-22.62
-18.51
-11.92
-3.80
4.85
13.26
21.05
28.10
34.29
39.32
42.73
44.02
42.86
39.15
33.13
25.33
16.56
7.81
0.09
-5.75
-9.24
-10.35
-9.36
-6.81
-3.27
0.68
4.48
7.55
9.26
8.97
6.14
0.39
-8.35
-19.75
-32.89
-46.17
-57.49
-64.54
-65.49
-59.54
-47.29
-30.63
-12.22
5.23
19.58
29.58
34.88
35.81
33.11
27.72
20.75
13.30
6.40
0.91
-2.59
-3.88
-3.13
-0.87
2.08
4.86
6.71
7.19
6.28
4.23
1.49
-1.50
-4.42
-7.15
-9.74
-12.39
-15.42
-19.16
-23.86
-29.49
-35.59
-41.18
-44.90
-45.30
-41.28
-32.58
-19.97
-5.18
9.56
22.21
31.43
36.85
38.88
38.37
36.14
32.79
28.70
24.21
19.74
15.74
12.55
10.34
9.03
8.43
8.36
8.67
9.23
9.82
10.14
9.87
8.81
6.94
4.38
1.32
-2.12
-5.88
-9.98
-14.47
-19.39
-24.76
-30.44
-35.93
-40.30
-42.23
-40.41
-34.09
-23.48
-9.88
4.71
18.18
28.92
36.14
39.73
40.04
37.48
32.56
25.95
18.65
11.90
6.91
4.46
4.63
6.85
10.04
13.12
15.25
15.99
15.24
13.25
10.40
7.17
4.03
1.30
-0.90
-2.72
-4.50
-6.68
-9.60
-13.38
-17.73
-21.98
-25.11
-25.95
-23.48
-17.16
-7.14
5.56
19.29
31.99
41.74
47.11
47.56
43.42
35.76
26.07
15.94
6.76
-0.38
-4.73
-6.00
-4.35
-0.53
4.25
8.53
10.94
10.59
7.30
1.62
-5.38
-12.43
-18.39
-22.53
-24.67
-25.17
-24.81
-24.63
-25.58
-28.30
-32.81
-38.42
-43.78
-47.19
-47.09
-42.55
-33.64
-21.48
-7.91
5.01
15.62
22.95
26.81
27.64
26.10
22.94
18.71
13.90
8.89
4.15
0.18
-2.62
-4.01
-4.17
-3.65
-3.16
-3.39
-4.65
-6.87
-9.62
-12.43
-15.08
-17.68
-20.58
-24.12
-28.50
-33.69
-39.56
-45.91
-52.55
-58.96
-64.27
-67.23
-66.52
-61.26
-51.41
-37.81
-22.00
-5.70
9.61
22.90
33.60
41.46
46.44
48.75
48.82
47.28
44.88
42.33
40.18
38.73
38.04
37.87
37.76
37.14
35.57
32.88
29.38
25.67
22.37
19.79
17.78
15.82
13.27
9.68
4.97
-0.69
-6.88
-13.08
-18.62
-22.62
-24.03
-21.92
-15.81
-5.98
6.48
19.91
32.49
42.62
49.21
51.67
49.94
44.41
35.99
26.10
16.43
8.69
4.15
3.34
5.91
10.83
16.63
21.82
25.20
26.06
24.23
20.02
14.07
7.11
-0.20
-7.44
-14.34
-20.73
-26.44
-31.23
-34.80
-36.79
-36.88
-34.75
-30.27
-23.56
-15.13
-5.86
3.19
11.03
16.99
20.89
22.90
23.35
22.47
20.37
17.10
12.91
8.28
3.91
0.55
-1.35
-1.69
-0.87
0.55
1.90
2.73
2.77
1.92
0.20
-2.34
-5.56
-9.35
-13.56
-18.06
-22.78
-27.60
-32.22
-36.07
-38.34
-38.18
-35.07
-28.98
-20.47
-10.49
-0.13
9.60
17.89
24.05
27.57
28.17
25.90
21.26
15.12
8.56
2.63
-1.89
-4.62
-5.59
-5.18
-3.94
-2.46
-1.16
-0.23
0.28
0.42
0.10
-0.93
-3.00
-6.38
-11.11
-16.92
-23.25
-29.27
-34.05
-36.62
-36.15
-32.19
-24.82
-14.76
-3.18
8.43
18.69
26.59
31.59
33.60
32.86
29.73
24.63
18.05
10.62
3.13
-3.55
-8.69
-11.88
-13.14
-12.84
-11.50
-9.56
-7.38
-5.36
-4.04
-4.22
-6.75
-12.10
-20.03
-29.42
-38.50
-45.29
-48.19
-46.37
-39.96
-29.90
-17.62
-4.69
7.53
18.04
26.24
31.88
34.90
35.41
33.60
29.86
24.77
19.16
13.98
10.13
8.23
8.43
10.31
13.07
15.71
17.46
17.88
16.96
14.93
12.01
8.38
4.15
-0.56
-5.51
-10.40
-14.92
-18.80
-21.70
-23.18
-22.66
-19.66
-13.99
-6.07
3.15
12.44
20.65
27.02
31.18
33.08
32.77
30.38
26.20
20.73
14.76
9.21
4.88
2.31
1.61
2.49
4.30
6.20
7.31
7.03
5.22
2.28
-1.06
-4.03
-6.16
-7.44
-8.26
-9.21
-10.82
-13.46
-17.18
-21.63
-26.05
-29.23
-29.87
-26.97
-20.34
-10.77
0.18
10.75
19.63
26.23
30.60
33.07
33.83
32.86
30.14
25.95
20.98
16.18
12.40
10.16
9.44
9.95
11.30
13.23
15.60
18.27
20.99
23.44
25.27
26.29
26.48
25.99
24.90
23.19
20.68
17.24
13.03
8.69
5.41
4.68
7.85
15.69
27.97
43.46
60.30
76.57
90.92
102.86
112.73
121.17
128.69
135.35
140.85
144.94
147.86
150.55
154.49
161.21
171.64
185.77
202.51
220.13
236.80
251.07
262.11
269.77
274.48
277.18
279.15
281.40
283.89
284.80
280.21
265.03
234.68
187.08
123.72
49.25
-30.38
-110.03
-186.61
-258.64
-324.81
-382.52
-427.97
-457.60
-470.46
-469.60
-461.40
-453.37
-451.13
-456.35
-466.67
-477.22
-482.55
-478.65
-463.87
-439.27
-408.64
-378.25
-355.81
-348.39
-359.54
-386.81
-421.38
-450.24
-460.36
-442.98
-396.07
-324.34
-237.38
-146.45
-61.47
11.18
69.45
114.79
150.24
178.31
199.82
214.21
221.25
222.88
223.55
228.74
241.99
262.40
284.67
301.55
307.59
301.76
287.50
270.36
254.88
242.57
231.99
220.37
205.70
188.05
169.41
152.40
138.67
128.16
119.15
109.30
96.92
81.79
65.15
48.97
34.99
23.79
14.73
6.29
-3.03
-13.84
-25.37
-35.64
-42.14
-42.82
-36.91
-25.32
-10.32
5.21
18.77
28.87
35.27
38.57
39.66
39.17
37.34
34.16
29.73
24.45
19.04
14.33
10.88
8.85
8.00
7.80
7.67
7.11
5.67
3.01
-1.16
-6.93
-14.18
-22.57
-31.61
-40.96
-50.53
-60.49
-71.07
-82.20
-93.35
-103.45
-111.21
-115.42
-115.43
-111.25
-103.58
-93.60
-82.65
-71.99
-62.63
-55.20
-49.95
-46.82
-45.57
-45.81
-47.15
-49.16
-51.44
-53.52
-54.93
-55.24
-54.12
-51.51
-47.63
-42.94
-38.01
-33.30
-29.06
-25.36
-22.12
-19.41
-17.38
-16.28
-16.35
-17.63
-20.05
-23.35
-27.20
-31.07
-34.20
-35.56
-34.10
-29.06
-20.31
-8.54
4.90
18.38
30.45
40.05
46.66
50.15
50.63
48.45
44.14
38.45
32.18
26.08
20.70
16.31
13.02
10.82
9.63
9.32
9.61
10.08
10.19
9.43
7.52
4.44
0.48
-3.91
-8.34
-12.51
-16.34
-19.92
-23.53
-27.48
-32.13
-37.61
-43.73
-49.74
-54.43
-56.25
-53.84
-46.48
-34.44
-19.02
-2.19
13.93
27.61
37.83
44.27
47.15
46.97
44.39
40.21
35.30
30.57
26.81
24.54
23.91
24.74
26.72
29.56
33.10
37.22
41.72
46.25
50.19
52.90
53.88
52.95
50.26
46.19
41.14
35.36
28.97
21.92
14.17
5.77
-3.01
-11.64
-19.23
-24.68
-26.91
-25.24
-19.73
-11.32
-1.64
7.56
14.83
19.46
21.49
21.44
19.99
17.65
14.72
11.29
7.46
3.44
-0.40
-3.59
-5.79
-6.81
-6.79
-6.07
-5.09
-4.25
-3.84
-4.02
-4.92
-6.60
-9.05
-12.06
-15.16
-17.75
-19.26
-19.46
-18.55
-17.17
-16.10
-15.90
-16.56
-17.33
-16.85
-13.58
-6.41
4.89
19.43
35.37
50.48
62.79
71.06
74.98
74.94
71.70
65.99
58.39
49.33
39.28
28.79
18.53
9.14
1.13
-5.28
-10.04
-13.38
-15.66
-17.24
-18.57
-19.99
-21.75
-23.90
-26.40
-29.15
-32.12
-35.35
-38.95
-43.04
-47.65
-52.72
-58.07
-63.49
-68.58
-72.74
-75.20
-75.08
-71.81
-65.36
-56.46
-46.34
-36.30
-27.13
-19.01
-11.63
-4.72
1.58
6.60
9.56
10.03
8.35
5.61
3.26
2.47
3.80
7.08
11.67
16.81
21.85
26.41
30.23
33.12
34.89
35.43
34.72
32.91
30.29
27.18
23.79
20.15
16.07
11.35
6.00
0.45
-4.43
-7.49
-7.78
-4.83
1.06
8.89
17.35
25.14
31.32
35.38
37.27
37.19
35.58
32.96
29.97
27.19
25.11
24.02
24.06
25.14
26.98
29.01
30.49
30.66
28.96
25.29
20.13
14.41
9.15
5.18
2.82
1.80
1.33
0.42
-1.91
-6.31
-12.80
-20.72
-28.80
-35.35
-38.75
-37.84
-32.26
-22.56
-10.10
3.31
15.87
26.11
33.17
36.78
37.15
34.81
30.48
25.00
19.25
14.13
10.32
8.23
7.79
8.51
9.69
10.63
10.86
10.21
8.83
7.04
5.18
3.44
1.85
0.23
-1.76
-4.50
-8.31
-13.35
-19.46
-26.11
-32.42
-37.25
-39.49
-38.36
-33.66
-25.84
-15.91
-5.14
5.22
14.27
21.44
26.58
29.73
31.02
30.65
28.85
25.98
22.52
19.04
16.05
13.94
12.81
12.54
12.84
13.32
13.68
13.64
13.10
11.99
10.32
8.16
5.62
2.81
-0.20
-3.41
-6.98
-11.09
-15.87
-21.22
-26.65
-31.36
-34.36
-34.75
-32.07
-26.39
-18.36
-8.98
0.64
9.61
17.29
23.36
27.66
30.14
30.77
29.59
26.74
22.58
17.68
12.76
8.61
5.84
4.79
5.45
7.42
10.06
12.66
14.67
15.68
15.57
14.39
12.25
9.32
5.76
1.77
-2.48
-6.80
-11.12
-15.45
-19.74
-23.85
-27.34
-29.53
-29.63
-27.10
-21.83
-14.34
-5.57
3.38
11.51
18.18
23.10
26.24
27.67
27.53
26.05
23.58
20.60
17.63
15.10
13.22
11.92
10.87
9.69
8.01
5.67
2.75
-0.39
-3.25
-5.28
-6.06
-5.43
-3.55
-0.87
1.93
4.12
4.95
3.86
0.54
-4.91
-11.89
-19.29
-25.64
-29.41
-29.42
-25.27
-17.39
-6.97
4.43
15.34
24.65
31.68
36.10
37.85
36.99
33.84
29.02
23.40
17.97
13.60
10.83
9.74
10.07
11.31
12.88
14.27
15.00
14.76
13.36
10.74
7.08
2.72
-1.85
-6.14
-9.71
-12.37
-14.11
-15.19
-16.05
-17.18
-19.04
-21.87
-25.59
-29.70
-33.39
-35.65
-35.63
-32.84
-27.32
-19.67
-10.82
-1.81
6.50
13.52
18.94
22.67
24.75
25.29
24.52
22.76
20.43
17.98
15.84
14.36
13.70
13.83
14.52
15.39
16.03
16.15
15.69
14.79
13.67
12.50
11.25
9.73
7.72
5.11
2.02
-1.25
-4.35
-7.07
-9.41
-11.51
-13.59
-15.79
-18.17
-20.81
-23.74
-27.00
-30.43
-33.56
-35.64
-35.84
-33.51
-28.57
-21.50
-13.23
-4.83
2.80
9.12
13.97
17.38
19.52
20.55
20.67
20.10
19.07
17.83
16.61
15.57
14.81
14.33
14.04
13.77
13.34
12.64
11.72
10.81
10.25
10.31
11.13
12.54
14.11
15.23
15.25
13.66
10.20
4.98
-1.56
-8.65
-15.40
-20.93
-24.62
-26.18
-25.80
-24.05
-21.80
-19.95
-19.22
-19.94
-21.83
-24.15
-25.83
-25.87
-23.64
-19.09
-12.77
-5.56
1.58
7.88
12.84
16.24
18.00
18.17
16.89
14.53
11.62
8.91
7.02
6.34
6.88
8.23
9.85
11.22
12.11
12.51
12.58
12.46
12.19
11.64
10.63
9.02
6.74
3.93
0.81
-2.28
-5.07
-7.40
-9.28
-10.87
-12.42
-14.16
-16.23
-18.68
-21.37
-23.94
-25.86
-26.50
-25.28
-21.94
-16.65
-10.03
-2.95
3.73
9.44
13.91
17.10
19.06
19.83
19.43
18.02
15.91
13.61
11.65
10.40
10.01
10.33
11.05
11.83
12.39
12.52
12.16
11.34
10.19
8.85
7.45
5.97
4.27
2.15
-0.51
-3.62
-6.91
-9.97
-12.45
-14.26
-15.55
-16.67
-18.03
-19.90
-22.39
-25.40
-28.67
-31.82
-34.34
-35.60
-35.03
-32.21
-27.13
-20.22
-12.28
-4.29
2.92
8.81
13.22
16.25
18.09
18.94
18.88
18.05
16.65
15.02
13.60
12.76
12.70
13.38
14.51
15.77
16.87
17.66
18.16
18.50
18.79
19.04
19.12
18.76
17.63
15.46
12.22
8.14
3.72
-0.43
-3.87
-6.44
-8.40
-10.26
-12.59
-15.80
-19.98
-24.88
-29.97
-34.60
-38.09
-39.86
-39.51
-36.89
-32.13
-25.68
-18.23
-10.58
-3.51
2.42
6.89
9.86
11.41
11.69
10.86
9.16
6.97
4.78
3.12
2.39
2.70
3.90
5.60
7.39
8.94
10.08
10.73
10.84
10.37
9.26
7.48
5.12
2.34
-0.58
-3.33
-5.68
-7.52
-8.91
-10.10
-11.43
-13.18
-15.56
-18.48
-21.66
-24.55
-26.56
-27.11
-25.81
-22.52
-17.40
-10.87
-3.54
3.87
10.67
16.22
20.11
22.15
22.41
21.19
18.97
16.28
13.63
11.39
9.77
8.82
8.49
8.60
8.97
9.39
9.65
9.62
9.26
8.57
7.59
6.31
4.65
2.57
0.10
-2.62
-5.34
-7.84
-10.07
-12.18
-14.51
-17.37
-20.86
-24.75
-28.43
-31.08
-31.90
-30.40
-26.50
-20.57
-13.30
-5.52
1.95
8.50
13.73
17.49
19.77
20.70
20.47
19.31
17.44
15.09
12.43
9.63
6.83
4.19
1.86
-0.00
-1.17
-1.44
-0.63
1.28
4.09
7.25
10.01
11.59
11.39
9.19
5.27
0.26
-5.01
-9.79
-13.62
-16.36
-18.25
-19.73
-21.28
-23.19
-25.44
-27.64
-29.11
-29.11
-27.10
-22.97
-17.03
-9.94
-2.48
4.62
10.85
15.88
19.52
21.70
22.38
21.64
19.68
16.85
13.60
10.39
7.63
5.63
4.55
4.39
5.05
6.32
7.91
9.53
10.85
11.57
11.38
10.07
7.59
4.07
-0.14
-4.57
-8.77
-12.35
-15.18
-17.28
-18.89
-20.33
-21.92
-23.83
-26.01
-28.08
-29.43
-29.34
-27.28
-23.08
-16.99
-9.54
-1.46
6.56
13.91
20.08
24.64
27.35
28.13
27.17
24.88
21.87
18.81
16.29
14.73
14.27
14.79
15.91
17.20
18.20
18.63
18.37
17.48
16.08
14.31
12.30
10.11
7.79
5.35
2.78
0.09
-2.70
-5.51
-8.29
-10.98
-13.64
-16.36
-19.31
-22.51
-25.82
-28.85
-31.01
-31.66
-30.34
-26.89
-21.58
-15.01
-7.92
-1.04
5.06
10.01
13.59
15.71
16.36
15.62
13.74
11.10
8.23
5.66
3.86
3.07
3.35
4.50
6.14
7.84
9.23
10.06
10.26
9.90
9.07
7.87
6.35
4.52
2.45
0.26
-1.85
-3.77
-5.46
-7.07
-8.81
-10.89
-13.39
-16.17
-18.82
-20.78
-21.45
-20.32
-17.19
-12.25
-6.03
0.69
7.10
12.57
16.71
19.42
20.76
20.84
19.81
17.84
15.17
12.13
9.14
6.61
4.84
3.96
3.93
4.53
5.46
6.45
7.24
7.66
7.58
6.93
5.73
4.06
2.06
-0.13
-2.42
-4.77
-7.23
-9.85
-12.66
-15.61
-18.47
-20.89
-22.39
-22.50
-20.86
-17.35
-12.18
-5.84
0.96
7.44
12.92
16.85
19.02
19.43
18.36
16.23
13.50
10.66
8.07
6.04
4.78
4.36
4.71
5.66
6.94
8.30
9.52
10.44
10.97
11.04
10.69
10.03
9.23
8.49
7.93
7.51
7.12
6.53
5.48
3.76
1.19
-2.30
-6.57
-11.16
-15.25
-17.78
-17.79
-14.69
-8.58
-0.30
8.89
17.61
24.84
30.12
33.58
35.74
37.27
38.77
40.59
42.85
45.37
47.80
49.62
50.31
49.40
46.64
42.07
36.03
29.06
21.77
14.64
7.88
1.49
-4.65
-10.67
-16.58
-22.26
-27.53
-32.21
-36.24
-39.75
-42.98
-46.27
-49.88
-53.94
-58.26
-62.39
-65.64
-67.33
-66.95
-64.38
-59.94
-54.30
-48.30
-42.73
-38.05
-34.41
-31.65
-29.43
-27.42
-25.45
-23.52
-21.75
-20.28
-19.18
-18.34
-17.59
-16.64
-15.24
-13.24
-10.65
-7.64
-4.52
-1.66
0.60
2.06
2.69
2.61
2.00
1.10
0.08
-0.95
-1.98
-3.09
-4.49
-6.46
-9.15
-12.47
-15.92
-18.68
-19.81
-18.59
-14.83
-8.91
-1.75
5.57
12.09
17.19
20.63
22.47
22.88
22.08
20.26
17.68
14.70
11.79
9.42
7.91
7.34
7.52
8.08
8.66
9.04
9.14
9.01
8.68
8.11
7.21
5.91
4.22
2.23
0.10
-2.04
-4.11
-6.12
-8.20
-10.53
-13.25
-16.44
-19.96
-23.43
-26.26
-27.74
-27.28
-24.53
-19.57
-12.92
-5.37
2.19
8.98
14.52
18.53
21.00
21.99
21.66
20.24
18.08
15.65
13.42
11.79
11.00
11.02
11.65
12.59
13.55
14.28
14.64
14.56
14.01
12.98
11.45
9.45
7.01
4.23
1.29
-1.60
-4.29
-6.72
-9.03
-11.47
-14.31
-17.69
-21.51
-25.38
-28.65
-30.58
-30.51
-28.03
-23.17
-16.38
-8.45
-0.35
7.06
13.18
17.79
20.96
22.89
23.82
23.92
23.30
22.15
20.73
19.36
18.34
17.84
17.87
18.34
19.09
19.99
20.93
21.76
22.31
22.34
21.66
20.18
17.90
14.97
11.58
7.99
4.32
0.65
-3.07
-6.95
-11.12
-15.60
-20.24
-24.61
-28.11
-30.09
-30.01
-27.66
-23.22
-17.24
-10.46
-3.69
2.40
7.39
11.08
13.45
14.59
14.55
13.46
11.51
9.01
6.40
4.13
2.62
2.02
2.29
3.15
4.27
5.30
6.02
6.25
5.92
4.99
3.49
1.55
-0.64
-2.88
-5.06
-7.21
-9.44
-11.99
-14.95
-18.36
-22.02
-25.54
-28.40
-29.97
-29.68
-27.15
-22.37
-15.75
-8.12
-0.46
6.32
11.66
15.37
17.55
18.46
18.27
17.14
15.17
12.57
9.69
6.98
4.80
3.34
2.57
2.28
2.21
2.11
1.79
1.10
-0.11
-1.93
-4.34
-7.23
-10.33
-13.36
-16.12
-18.55
-20.81
-23.17
-25.91
-29.18
-32.88
-36.61
-39.71
-41.38
-40.87
-37.74
-31.96
-24.04
-14.84
-5.41
3.29
10.58
16.14
19.99
22.33
23.44
23.54
22.83
21.48
19.73
17.83
16.06
14.65
13.69
13.17
13.03
13.17
13.49
13.86
14.03
13.70
12.57
10.45
7.42
3.82
0.14
-3.22
-6.04
-8.41
-10.65
-13.11
-16.08
-19.59
-23.42
-27.08
-29.87
-31.02
-29.90
-26.21
-20.13
-12.37
-3.93
4.11
10.98
16.34
20.28
23.08
24.97
25.97
25.95
24.76
22.46
19.38
16.10
13.23
11.28
10.48
10.79
11.96
13.60
15.31
16.68
17.39
17.22
16.11
14.16
11.62
8.80
6.00
3.39
1.01
-1.23
-3.48
-5.88
-8.46
-11.14
-13.68
-15.69
-16.68
-16.22
-14.07
-10.26
-5.20
0.49
6.08
10.96
14.74
17.25
18.50
18.57
17.62
15.92
13.83
11.82
10.27
9.43
9.28
9.64
10.17
10.61
10.83
10.82
10.65
10.35
9.87
9.08
7.83
6.02
3.63
0.75
-2.39
-5.58
-8.57
-11.22
-13.51
-15.53
-17.54
-19.81
-22.53
-25.73
-29.20
-32.43
-34.79
-35.58
-34.27
-30.67
-24.94
-17.65
-9.60
-1.65
5.47
11.31
15.69
18.62
20.20
20.55
19.78
18.15
16.03
13.98
12.53
11.99
12.37
13.32
14.39
15.14
15.42
15.31
15.02
14.70
14.33
13.69
12.51
10.65
8.16
5.32
2.51
0.05
-1.94
-3.55
-5.06
-6.77
-8.94
-11.69
-15.06
-18.91
-22.95
-26.67
-29.40
-30.42
-29.18
-25.51
-19.73
-12.56
-4.93
2.32
8.59
13.55
17.08
19.17
19.86
19.23
17.55
15.23
12.84
10.86
9.66
9.35
9.81
10.76
11.88
12.87
13.53
13.76
13.54
12.92
11.95
10.64
8.99
6.96
4.61
2.07
-0.42
-2.64
-4.50
-6.16
-7.94
-10.27
-13.37
-17.10
-20.86
-23.74
-24.80
-23.40
-19.45
-13.40
-6.11
1.44
8.40
14.20
18.56
21.40
22.78
22.83
21.74
19.80
17.36
14.85
12.66
11.11
10.40
10.53
11.33
12.42
13.38
13.76
13.27
11.82
9.46
6.35
2.64
-1.52
-6.04
-10.72
-15.25
-19.24
-22.32
-24.34
-25.42
-25.97
-26.56
-27.71
-29.73
-32.60
-36.02
-39.37
-41.87
-42.69
-41.14
-36.87
-29.97
-20.99
-10.87
-0.66
8.69
16.58
22.82
27.60
31.29
34.36
37.21
40.16
43.43
47.09
50.99
54.75
57.87
59.88
60.60
60.28
59.62
59.42
60.31
62.34
64.94
67.07
67.48
65.15
59.51
50.62
39.11
25.96
12.30
-0.89
-13.00
-23.81
-33.43
-42.18
-50.30
-57.87
-64.72
-70.49
-74.65
-76.64
-76.02
-72.58
-66.52
-58.45
-49.36
-40.37
-32.46
-26.29
-22.00
-19.39
-17.99
-17.32
-16.94
-16.55
-15.91
-14.89
-13.50
-11.86
-10.23
-8.82
-7.70
-6.76
-5.68
-4.21
-2.21
0.16
2.50
4.30
5.10
4.68
3.08
0.54
-2.53
-5.72
-8.74
-11.44
-13.85
-16.06
-18.13
-19.98
-21.36
-21.89
-21.21
-19.01
-15.25
-10.15
-4.15
2.14
8.12
13.31
17.41
20.25
21.77
21.95
20.89
18.78
16.02
13.16
10.75
9.19
8.59
8.75
9.28
9.80
10.03
9.93
9.57
9.04
8.37
7.47
6.18
4.35
1.95
-0.94
-4.07
-7.16
-9.97
-12.37
-14.32
-15.92
-17.36
-18.85
-20.61
-22.71
-25.03
-27.18
-28.57
-28.54
-26.60
-22.66
-17.05
-10.46
-3.69
2.56
7.80
11.76
14.36
15.63
15.67
14.67
12.91
10.74
8.53
6.63
5.27
4.58
4.53
4.97
5.68
6.41
7.00
7.35
7.39
7.09
6.36
5.19
3.58
1.65
-0.46
-2.61
-4.72
-6.81
-8.97
-11.27
-13.78
-16.48
-19.32
-22.12
-24.59
-26.36
-26.99
-26.10
-23.51
-19.27
-13.74
-7.48
-1.17
4.52
9.11
12.40
14.47
15.54
15.82
15.42
14.33
12.58
10.32
7.93
5.90
4.63
4.24
4.53
5.17
5.79
6.20
6.39
6.37
6.14
5.60
4.62
3.17
1.32
-0.74
-2.84
-4.89
-7.01
-9.38
-12.11
-15.15
-18.15
-20.53
-21.64
-20.99
-18.41
-14.13
-8.68
-2.76
2.91
7.82
11.58
14.01
15.11
14.98
13.83
11.96
9.69
7.31
5.05
3.07
1.50
0.45
0.02
0.22
0.94
1.97
3.01
3.77
4.03
3.67
2.73
1.27
-0.58
-2.71
-5.04
-7.52
-10.13
-12.89
-15.88
-19.11
-22.51
-25.74
-28.27
-29.42
-28.63
-25.59
-20.48
-13.91
-6.73
0.17
6.11
10.72
13.95
15.89
16.75
16.69
15.87
14.45
12.63
10.67
8.85
7.38
6.40
5.93
5.89
6.16
6.58
6.98
7.16
6.94
6.16
4.78
2.85
0.57
-1.80
-4.03
-5.98
-7.66
-9.24
-11.02
-13.32
-16.30
-19.83
-23.43
-26.32
-27.63
-26.72
-23.40
-18.02
-11.30
-4.12
2.70
8.58
13.20
16.47
18.45
19.27
19.12
18.16
16.58
14.60
12.50
10.62
9.27
8.62
8.63
9.03
9.48
9.70
9.59
9.19
8.62
7.90
6.88
5.40
3.35
0.84
-1.87
-4.45
-6.70
-8.62
-10.44
-12.45
-14.89
-17.76
-20.83
-23.66
-25.72
-26.47
-25.49
-22.63
-18.05
-12.29
-6.04
-0.07
5.07
9.09
11.98
13.86
14.86
15.02
14.37
13.07
11.38
9.71
8.48
7.86
7.85
8.21
8.70
9.17
9.59
9.95
10.23
10.28
9.87
8.86
